 File:An·lise amostras  Solution Type:Thick  fitting 1231 channels (  70-1300)
 Channel#, E(keV),   Data,        Fit, Residual,    Data-Fit
   70,   0.425,     1408.,      224.68,   -0.01,     1183.32
   71,   0.445,     1551.,      398.21,    0.01,     1152.79
   72,   0.465,     1734.,      661.36,    0.04,     1072.64
   73,   0.485,     2149.,     1015.73,    0.01,     1133.27
   74,   0.505,     2544.,     1429.66,   -0.01,     1114.34
   75,   0.525,     2959.,     1833.31,   -0.02,     1125.69
   76,   0.545,     3053.,     2134.05,   -0.01,      918.95
   77,   0.565,     3160.,     2251.16,   -0.05,      908.84
   78,   0.585,     3055.,     2152.49,   -0.08,      902.51
   79,   0.605,     2777.,     1871.09,   -0.14,      905.91
   80,   0.625,     2334.,     1490.06,   -0.14,      843.94
   81,   0.645,     2000.,     1104.80,   -0.12,      895.20
   82,   0.666,     1634.,      785.52,   -0.09,      848.48
   83,   0.686,     1420.,      559.08,   -0.05,      860.92
   84,   0.706,     1317.,      414.73,   -0.01,      902.27
   85,   0.726,     1264.,      323.60,    0.03,      940.40
   86,   0.746,     1195.,      258.10,    0.12,      936.90
   87,   0.766,     1142.,      202.03,    0.19,      939.97
   88,   0.786,     1097.,      151.03,    0.24,      945.97
   89,   0.806,     1076.,      107.18,    0.21,      968.82
   90,   0.826,      969.,       73.60,    0.15,      895.40
   91,   0.846,      949.,       50.68,    0.04,      898.32
   92,   0.866,      888.,       36.46,   -0.11,      851.54
   93,   0.886,      904.,       27.67,   -0.25,      876.33
   94,   0.906,      878.,       21.57,   -0.19,      856.43
   95,   0.926,      825.,       16.56,   -0.12,      808.44
   96,   0.947,      848.,       12.18,   -0.08,      835.82
   97,   0.967,      896.,        8.47,   -0.06,      887.53
   98,   0.987,      878.,        5.70,   -0.08,      872.30
   99,   1.007,      842.,        3.97,   -0.08,      838.03
  100,   1.027,      824.,        3.04,   -0.02,      820.96
  101,   1.047,      828.,        2.61,   -0.08,      825.39
  102,   1.067,      790.,        2.45,   -0.11,      787.55
  103,   1.087,      862.,        2.24,   -0.13,      859.76
  104,   1.107,      831.,        1.94,   -0.01,      829.06
  105,   1.127,      848.,        1.57,    0.08,      846.43
  106,   1.147,      845.,        1.15,    0.37,      843.85
  107,   1.167,      851.,        0.76,    0.28,      850.24
  108,   1.187,      797.,        0.46,    0.23,      796.54
  109,   1.207,      826.,        0.29,   -0.03,      825.71
  110,   1.227,      826.,        0.24,   -0.18,      825.76
  111,   1.248,      817.,        0.27,    0.01,      816.73
  112,   1.268,      767.,        0.59,    0.26,      766.41
  113,   1.288,      781.,        1.19,    0.32,      779.81
  114,   1.308,      831.,        2.33,   -0.02,      828.67
  115,   1.328,      833.,        4.36,   -0.25,      828.64
  116,   1.348,      805.,        7.79,   -0.05,      797.21
  117,   1.368,      747.,       13.18,   -0.01,      733.82
  118,   1.388,      730.,       21.02,    0.08,      708.98
  119,   1.408,      809.,       31.36,   -0.32,      777.64
  120,   1.428,      806.,       43.50,   -0.66,      762.50
  121,   1.448,      863.,       56.02,   -0.31,      806.98
  122,   1.468,      786.,       66.87,    0.00,      719.13
  123,   1.488,      806.,       74.03,   -0.03,      731.97
  124,   1.508,      849.,       76.18,   -0.06,      772.82
  125,   1.529,      817.,       73.27,   -0.61,      743.73
  126,   1.549,      803.,       66.62,   -0.47,      736.38
  127,   1.569,      809.,       58.53,   -0.30,      750.47
  128,   1.589,      780.,       51.71,   -0.39,      728.29
  129,   1.609,      840.,       48.13,   -0.37,      791.87
  130,   1.629,      799.,       49.07,   -0.18,      749.93
  131,   1.649,      834.,       54.57,   -0.57,      779.43
  132,   1.669,      812.,       63.95,   -0.18,      748.05
  133,   1.689,      894.,       76.13,   -0.48,      817.87
  134,   1.709,      846.,       90.01,   -0.27,      755.99
  135,   1.729,      909.,      104.44,   -0.38,      804.56
  136,   1.749,      925.,      118.15,   -0.81,      806.85
  137,   1.769,      965.,      129.66,   -1.16,      835.34
  138,   1.789,      998.,      137.44,   -1.37,      860.56
  139,   1.809,      958.,      139.84,   -1.39,      818.16
  140,   1.830,      999.,      136.27,   -1.09,      862.73
  141,   1.850,      984.,      127.27,   -0.95,      856.73
  142,   1.870,     1073.,      114.82,   -1.20,      958.18
  143,   1.890,     1105.,      102.21,   -0.18,     1002.79
  144,   1.910,     1083.,       94.10,   -0.02,      988.90
  145,   1.930,     1122.,       95.77,   -0.48,     1026.23
  146,   1.950,     1227.,      112.53,   -1.30,     1114.47
  147,   1.970,     1230.,      148.38,   -3.67,     1081.62
  148,   1.990,     1311.,      204.46,   -5.30,     1106.54
  149,   2.010,     1466.,      278.61,   -5.45,     1187.39
  150,   2.030,     1509.,      370.25,   -5.07,     1138.75
  151,   2.050,     1725.,      495.10,   -3.58,     1229.90
  152,   2.070,     2231.,      717.07,   -2.17,     1513.93
  153,   2.090,     2838.,     1205.90,   -0.78,     1632.10
  154,   2.111,     4352.,     2320.78,    0.31,     2031.22
  155,   2.131,     7088.,     4703.38,    1.31,     2384.62
  156,   2.151,    12108.,     9326.11,    1.92,     2781.89
  157,   2.171,    20568.,    17401.00,    2.25,     3167.00
  158,   2.191,    33280.,    30051.60,    2.51,     3228.40
  159,   2.211,    50944.,    47733.11,    2.08,     3210.89
  160,   2.231,    72032.,    69570.14,    1.57,     2461.86
  161,   2.251,    95328.,    92973.19,    0.71,     2354.81
  162,   2.271,   114592.,   113923.45,   -0.37,      668.55
  163,   2.291,   128352.,   128050.58,   -1.20,      301.42
  164,   2.311,   131584.,   132161.48,   -1.79,     -577.48
  165,   2.331,   124064.,   125510.30,   -2.19,    -1446.30
  166,   2.351,   109472.,   110103.91,   -1.94,     -631.91
  167,   2.371,    89184.,    89874.83,   -1.52,     -690.83
  168,   2.392,    69152.,    69142.59,   -0.97,        9.41
  169,   2.412,    51936.,    51172.30,    0.02,      763.70
  170,   2.432,    38560.,    37452.35,    0.53,     1107.65
  171,   2.452,    28832.,    27842.30,    1.16,      989.70
  172,   2.472,    22624.,    21279.96,    1.31,     1344.04
  173,   2.492,    17592.,    16560.38,    1.65,     1031.63
  174,   2.512,    13960.,    12828.70,    1.62,     1131.30
  175,   2.532,    10820.,     9695.87,    1.44,     1124.13
  176,   2.552,     8016.,     7094.16,    1.12,      921.84
  177,   2.572,     6042.,     5062.20,    0.42,      979.80
  178,   2.592,     4732.,     3595.09,    0.15,     1136.91
  179,   2.612,     3464.,     2602.47,   -0.19,      861.53
  180,   2.632,     2786.,     1943.65,   -0.78,      842.35
  181,   2.652,     2253.,     1484.09,   -0.66,      768.91
  182,   2.672,     1874.,     1132.44,   -1.11,      741.56
  183,   2.693,     1552.,      846.32,   -2.43,      705.68
  184,   2.713,     1345.,      616.26,   -2.80,      728.74
  185,   2.733,     1159.,      444.27,   -3.24,      714.73
  186,   2.753,     1072.,      328.82,   -3.08,      743.18
  187,   2.773,      955.,      259.88,   -1.65,      695.12
  188,   2.793,      921.,      221.43,   -0.94,      699.57
  189,   2.813,      944.,      197.26,   -0.66,      746.74
  190,   2.833,      922.,      175.35,   -0.17,      746.65
  191,   2.853,      914.,      149.81,   -0.22,      764.19
  192,   2.873,      869.,      120.38,    0.53,      748.62
  193,   2.893,      797.,       89.97,    1.12,      707.03
  194,   2.913,      818.,       62.23,    1.43,      755.77
  195,   2.933,      799.,       39.74,    2.40,      759.26
  196,   2.953,      787.,       23.41,    1.65,      763.59
  197,   2.974,      746.,       12.74,    1.00,      733.26
  198,   2.994,      762.,        6.40,    1.18,      755.60
  199,   3.014,      781.,        2.96,    0.44,      778.04
  200,   3.034,      719.,        1.33,    0.87,      717.67
  201,   3.054,      708.,        0.68,    0.69,      707.32
  202,   3.074,      691.,        0.65,    0.62,      690.35
  203,   3.094,      671.,        1.21,    0.50,      669.79
  204,   3.114,      720.,        2.69,   -1.11,      717.31
  205,   3.134,      719.,        5.70,   -0.95,      713.30
  206,   3.154,      705.,       11.15,   -1.20,      693.85
  207,   3.174,      705.,       20.14,   -0.99,      684.86
  208,   3.194,      663.,       33.60,    0.35,      629.40
  209,   3.214,      730.,       51.74,    0.59,      678.26
  210,   3.234,      717.,       73.57,   -0.25,      643.43
  211,   3.254,      734.,       96.59,   -0.60,      637.41
  212,   3.275,      802.,      117.06,   -0.88,      684.94
  213,   3.295,      799.,      131.00,   -0.22,      668.00
  214,   3.315,      779.,      135.33,    0.43,      643.67
  215,   3.335,      758.,      129.14,    0.63,      628.86
  216,   3.355,      751.,      113.83,    0.64,      637.17
  217,   3.375,      688.,       92.76,   -0.65,      595.24
  218,   3.395,      751.,       70.09,   -0.40,      680.91
  219,   3.415,      660.,       49.53,   -0.13,      610.47
  220,   3.435,      647.,       33.45,    0.74,      613.55
  221,   3.455,      594.,       22.87,    0.61,      571.13
  222,   3.475,      657.,       17.64,    1.56,      639.36
  223,   3.495,      624.,       17.00,   -0.17,      607.00
  224,   3.515,      659.,       20.05,   -0.69,      638.95
  225,   3.535,      596.,       25.96,   -0.02,      570.04
  226,   3.556,      628.,       34.11,   -0.02,      593.89
  227,   3.576,      586.,       43.93,    0.33,      542.07
  228,   3.596,      608.,       54.77,    0.74,      553.23
  229,   3.616,      640.,       65.84,   -0.99,      574.16
  230,   3.636,      633.,       75.78,   -0.77,      557.22
  231,   3.656,      664.,       83.04,   -0.80,      580.96
  232,   3.676,      666.,       86.12,   -0.38,      579.88
  233,   3.696,      570.,       84.08,    0.46,      485.92
  234,   3.716,      646.,       76.94,    0.49,      569.06
  235,   3.736,      598.,       65.74,    0.63,      532.26
  236,   3.756,      567.,       52.35,   -0.34,      514.65
  237,   3.776,      552.,       38.81,   -1.73,      513.19
  238,   3.796,      572.,       26.81,   -0.64,      545.19
  239,   3.816,      542.,       17.39,   -0.87,      524.61
  240,   3.837,      521.,       10.81,   -0.80,      510.19
  241,   3.857,      481.,        6.99,   -0.24,      474.01
  242,   3.877,      518.,        5.35,   -0.28,      512.65
  243,   3.897,      523.,        5.33,   -0.56,      517.67
  244,   3.917,      516.,        6.43,    0.05,      509.57
  245,   3.937,      505.,        8.18,    0.22,      496.82
  246,   3.957,      522.,       10.09,    0.82,      511.91
  247,   3.977,      494.,       11.78,    1.09,      482.22
  248,   3.997,      543.,       12.86,    0.74,      530.14
  249,   4.017,      503.,       13.04,    0.37,      489.96
  250,   4.037,      500.,       12.28,    0.05,      487.72
  251,   4.057,      488.,       10.74,   -0.44,      477.26
  252,   4.077,      492.,        8.80,    0.45,      483.20
  253,   4.097,      466.,        6.76,   -0.02,      459.24
  254,   4.117,      487.,        5.01,    0.41,      481.99
  255,   4.138,      458.,        3.83,    1.05,      454.17
  256,   4.158,      496.,        3.47,    1.27,      492.53
  257,   4.178,      454.,        4.04,    0.91,      449.96
  258,   4.198,      482.,        5.70,    1.11,      476.30
  259,   4.218,      458.,        8.59,   -0.19,      449.41
  260,   4.238,      467.,       12.72,    0.14,      454.28
  261,   4.258,      420.,       18.16,   -0.67,      401.84
  262,   4.278,      456.,       24.87,   -0.77,      431.13
  263,   4.298,      415.,       32.77,   -0.64,      382.23
  264,   4.318,      461.,       41.86,   -1.25,      419.14
  265,   4.338,      462.,       52.45,   -1.16,      409.55
  266,   4.358,      484.,       65.06,    0.54,      418.94
  267,   4.378,      497.,       80.60,    0.48,      416.40
  268,   4.398,      481.,       99.84,    1.62,      381.16
  269,   4.419,      523.,      123.59,    1.91,      399.41
  270,   4.439,      562.,      152.46,    0.37,      409.54
  271,   4.459,      544.,      186.78,   -0.10,      357.22
  272,   4.479,      610.,      227.52,   -1.05,      382.48
  273,   4.499,      658.,      276.46,   -1.29,      381.54
  274,   4.519,      643.,      336.16,   -1.01,      306.84
  275,   4.539,      750.,      408.91,   -1.45,      341.09
  276,   4.559,      833.,      494.88,   -1.30,      338.12
  277,   4.579,      940.,      589.76,   -1.27,      350.24
  278,   4.599,     1044.,      683.94,   -1.97,      360.06
  279,   4.619,     1096.,      763.25,   -1.29,      332.75
  280,   4.639,     1152.,      812.43,   -1.05,      339.57
  281,   4.659,     1211.,      819.79,   -0.53,      391.21
  282,   4.679,     1088.,      781.51,   -0.58,      306.49
  283,   4.699,     1031.,      702.76,   -1.50,      328.24
  284,   4.720,      964.,      596.80,   -1.67,      367.20
  285,   4.740,      876.,      480.44,   -1.08,      395.56
  286,   4.760,      713.,      369.51,   -1.65,      343.49
  287,   4.780,      643.,      275.29,    0.05,      367.71
  288,   4.800,      580.,      202.92,    1.21,      377.08
  289,   4.820,      580.,      152.52,    2.01,      427.48
  290,   4.840,      495.,      120.56,    1.84,      374.44
  291,   4.860,      534.,      102.55,    1.82,      431.45
  292,   4.880,      538.,       93.55,    2.50,      444.45
  293,   4.900,      523.,       89.69,    2.16,      433.31
  294,   4.920,      471.,       88.34,    1.36,      382.66
  295,   4.940,      485.,       87.61,    1.42,      397.39
  296,   4.960,      509.,       86.62,   -0.26,      422.38
  297,   4.980,      466.,       85.04,   -1.55,      380.96
  298,   5.001,      475.,       83.00,   -2.26,      392.00
  299,   5.021,      497.,       80.91,   -1.88,      416.09
  300,   5.041,      450.,       79.08,   -1.81,      370.92
  301,   5.061,      492.,       77.74,   -1.87,      414.26
  302,   5.081,      485.,       77.23,   -0.95,      407.77
  303,   5.101,      497.,       77.73,   -1.96,      419.27
  304,   5.121,      487.,       79.38,   -1.99,      407.62
  305,   5.141,      520.,       82.49,   -0.13,      437.51
  306,   5.161,      530.,       87.45,    0.24,      442.55
  307,   5.181,      504.,       94.45,    1.15,      409.55
  308,   5.201,      548.,      103.73,    0.14,      444.27
  309,   5.221,      594.,      115.04,   -0.39,      478.96
  310,   5.241,      594.,      127.50,   -2.05,      466.50
  311,   5.261,      650.,      139.77,   -2.27,      510.23
  312,   5.281,      604.,      150.13,   -1.74,      453.87
  313,   5.302,      611.,      156.89,   -1.58,      454.11
  314,   5.322,      604.,      158.90,   -1.38,      445.10
  315,   5.342,      655.,      155.87,   -0.43,      499.13
  316,   5.362,      672.,      148.51,   -0.46,      523.49
  317,   5.382,      673.,      138.29,    1.11,      534.71
  318,   5.402,      702.,      127.03,    3.16,      574.97
  319,   5.422,      696.,      116.44,    5.40,      579.56
  320,   5.442,      669.,      107.72,    6.50,      561.28
  321,   5.462,      690.,      101.51,    7.39,      588.49
  322,   5.482,      691.,       97.79,    6.44,      593.21
  323,   5.502,      684.,       96.26,    4.60,      587.74
  324,   5.522,      659.,       96.40,    2.82,      562.60
  325,   5.542,      652.,       97.98,    1.65,      554.02
  326,   5.562,      604.,      100.59,   -0.30,      503.41
  327,   5.583,      592.,      103.93,   -1.21,      488.07
  328,   5.603,      615.,      108.04,   -2.58,      506.96
  329,   5.623,      581.,      112.79,   -3.12,      468.21
  330,   5.643,      587.,      118.16,   -4.43,      468.84
  331,   5.663,      627.,      124.26,   -4.04,      502.74
  332,   5.683,      625.,      131.15,   -4.48,      493.85
  333,   5.703,      647.,      138.96,   -3.69,      508.04
  334,   5.723,      593.,      147.78,   -2.80,      445.22
  335,   5.743,      664.,      157.86,   -2.25,      506.14
  336,   5.763,      623.,      169.16,   -2.29,      453.84
  337,   5.783,      723.,      181.96,   -1.81,      541.04
  338,   5.803,      726.,      196.43,   -1.28,      529.57
  339,   5.823,      702.,      212.80,    0.03,      489.20
  340,   5.843,      781.,      231.32,   -0.51,      549.68
  341,   5.864,      829.,      252.27,    1.66,      576.73
  342,   5.884,      842.,      275.97,    2.09,      566.03
  343,   5.904,      889.,      302.79,    2.03,      586.21
  344,   5.924,      865.,      333.12,    3.00,      531.88
  345,   5.944,      979.,      367.45,    3.14,      611.55
  346,   5.964,     1013.,      406.42,    1.86,      606.58
  347,   5.984,     1014.,      450.71,    2.65,      563.29
  348,   6.004,     1097.,      501.42,    3.65,      595.58
  349,   6.024,     1157.,      560.64,    5.16,      596.36
  350,   6.044,     1171.,      632.65,    7.08,      538.35
  351,   6.064,     1295.,      727.16,    7.69,      567.84
  352,   6.084,     1447.,      866.41,    7.75,      580.59
  353,   6.104,     1616.,     1099.28,    5.44,      516.72
  354,   6.124,     2093.,     1526.40,    4.33,      566.60
  355,   6.144,     2895.,     2341.31,    1.84,      553.69
  356,   6.165,     4270.,     3885.98,    0.44,      384.02
  357,   6.185,     6980.,     6711.42,   -1.50,      268.58
  358,   6.205,    11612.,    11616.17,   -2.39,       -4.17
  359,   6.225,    19296.,    19618.70,   -4.06,     -322.70
  360,   6.245,    31576.,    31812.14,   -4.37,     -236.14
  361,   6.265,    48528.,    49070.00,   -4.52,     -542.00
  362,   6.285,    71904.,    71628.86,   -4.05,      275.14
  363,   6.305,    97952.,    98658.33,   -1.89,     -706.33
  364,   6.325,   128224.,   128002.03,   -0.79,      221.97
  365,   6.345,   156288.,   156279.72,    0.35,        8.28
  366,   6.365,   179840.,   179443.33,    1.26,      396.67
  367,   6.385,   195200.,   193696.17,    1.18,     1503.83
  368,   6.405,   197248.,   196504.70,    1.38,      743.30
  369,   6.425,   188224.,   187333.28,    1.43,      890.72
  370,   6.446,   168320.,   167800.53,    1.59,      519.47
  371,   6.466,   141632.,   141214.97,    1.35,      417.03
  372,   6.486,   111552.,   111649.21,    0.26,      -97.21
  373,   6.506,    83712.,    82929.05,   -0.38,      782.95
  374,   6.526,    58560.,    57868.43,   -0.83,      691.57
  375,   6.546,    38720.,    37939.89,   -0.78,      780.11
  376,   6.566,    24096.,    23375.46,   -0.55,      720.54
  377,   6.586,    14420.,    13540.76,    1.30,      879.24
  378,   6.606,     8142.,     7383.31,    1.48,      758.69
  379,   6.626,     4722.,     3800.82,    1.87,      921.18
  380,   6.646,     2655.,     1861.92,    1.61,      793.08
  381,   6.666,     1675.,      886.85,    1.29,      788.15
  382,   6.686,     1198.,      434.58,   -0.54,      763.42
  383,   6.706,      967.,      247.52,   -1.46,      719.48
  384,   6.726,      868.,      190.24,   -3.45,      677.76
  385,   6.747,      941.,      201.08,   -5.69,      739.92
  386,   6.767,      995.,      260.85,   -7.29,      734.15
  387,   6.787,     1061.,      377.13,   -8.30,      683.87
  388,   6.807,     1370.,      579.54,   -7.83,      790.46
  389,   6.827,     1764.,      921.89,   -5.76,      842.11
  390,   6.847,     2435.,     1486.99,   -2.11,      948.01
  391,   6.867,     3252.,     2388.13,    1.16,      863.87
  392,   6.887,     4768.,     3761.70,    4.72,     1006.30
  393,   6.907,     6800.,     5743.01,    7.81,     1056.99
  394,   6.927,     9852.,     8423.61,   10.07,     1428.39
