 File:An·lise amostras  Solution Type:Thick  fitting 1231 channels (  70-1300)
 Channel#, E(keV),   Data,        Fit, Residual,    Data-Fit
   70,   0.425,      139.,        0.29,   -0.01,      138.71
   71,   0.445,      147.,        0.51,    0.04,      146.49
   72,   0.465,      121.,        0.84,    0.03,      120.16
   73,   0.485,      127.,        1.25,    0.02,      125.75
   74,   0.505,      125.,        1.71,   -0.03,      123.29
   75,   0.525,      146.,        2.14,    0.01,      143.86
   76,   0.545,      119.,        2.46,   -0.10,      116.54
   77,   0.565,      132.,        2.59,    0.02,      129.41
   78,   0.585,      121.,        2.51,    0.13,      118.49
   79,   0.605,      131.,        2.24,    0.15,      128.76
   80,   0.626,      111.,        1.85,    0.04,      109.15
   81,   0.646,      134.,        1.42,    0.06,      132.58
   82,   0.666,      129.,        1.08,    0.02,      127.92
   83,   0.686,      104.,        0.89,   -0.14,      103.11
   84,   0.706,      111.,        0.85,   -0.05,      110.15
   85,   0.726,      114.,        1.03,    0.00,      112.97
   86,   0.746,      101.,        1.44,   -0.26,       99.56
   87,   0.766,       97.,        2.16,   -0.25,       94.84
   88,   0.786,      127.,        3.19,   -0.14,      123.81
   89,   0.806,      111.,        4.43,   -0.22,      106.57
   90,   0.826,       89.,        5.72,   -0.07,       83.28
   91,   0.846,      135.,        6.83,    0.18,      128.17
   92,   0.866,      113.,        7.53,    0.33,      105.47
   93,   0.886,      105.,        7.66,    0.11,       97.34
   94,   0.906,      110.,        7.16,   -0.17,      102.84
   95,   0.926,      119.,        6.19,    0.10,      112.81
   96,   0.946,      109.,        4.95,   -0.31,      104.05
   97,   0.966,      103.,        3.70,   -0.31,       99.30
   98,   0.987,       83.,        2.65,   -0.12,       80.35
   99,   1.007,      109.,        1.89,   -0.33,      107.11
  100,   1.027,       98.,        1.41,   -0.28,       96.59
  101,   1.047,      104.,        1.14,   -0.02,      102.86
  102,   1.067,      108.,        0.97,   -0.02,      107.03
  103,   1.087,      104.,        0.84,    0.50,      103.16
  104,   1.107,       97.,        0.72,    0.51,       96.28
  105,   1.127,      116.,        0.61,    0.68,      115.39
  106,   1.147,       99.,        0.47,    0.56,       98.53
  107,   1.167,      111.,        0.33,    0.18,      110.67
  108,   1.187,       88.,        0.22,   -0.20,       87.78
  109,   1.207,       96.,        0.13,   -0.34,       95.87
  110,   1.227,       95.,        0.07,   -0.64,       94.93
  111,   1.247,      105.,        0.04,   -0.23,      104.96
  112,   1.267,       77.,        0.00,   -0.48,       77.00
  113,   1.287,       88.,        0.00,   -0.36,       88.00
  114,   1.307,       98.,        0.01,   -0.18,       97.99
  115,   1.327,      113.,        0.02,   -0.25,      112.98
  116,   1.348,       93.,        0.07,   -0.65,       92.93
  117,   1.368,       93.,        0.17,   -0.59,       92.83
  118,   1.388,       96.,        0.34,   -0.33,       95.66
  119,   1.408,       99.,        0.63,   -0.23,       98.37
  120,   1.428,       90.,        1.09,   -0.18,       88.91
  121,   1.448,       97.,        1.77,    0.13,       95.23
  122,   1.468,      103.,        2.72,   -0.02,      100.28
  123,   1.488,      114.,        3.90,    0.11,      110.10
  124,   1.508,      115.,        5.25,   -0.41,      109.75
  125,   1.528,      124.,        6.67,   -0.94,      117.33
  126,   1.548,      108.,        8.13,   -1.29,       99.87
  127,   1.568,      120.,        9.72,   -1.52,      110.28
  128,   1.588,      107.,       11.77,   -1.52,       95.23
  129,   1.608,      116.,       14.82,   -1.40,      101.18
  130,   1.628,      131.,       19.54,   -1.53,      111.46
  131,   1.648,      143.,       26.37,   -1.29,      116.63
  132,   1.668,      179.,       35.36,   -0.77,      143.64
  133,   1.688,      201.,       46.19,   -0.36,      154.81
  134,   1.709,      209.,       58.07,   -0.14,      150.93
  135,   1.729,      217.,       70.36,   -0.21,      146.64
  136,   1.749,      248.,       83.04,   -0.81,      164.96
  137,   1.769,      266.,       97.17,   -1.43,      168.83
  138,   1.789,      289.,      115.31,   -1.50,      173.69
  139,   1.809,      313.,      140.96,   -1.94,      172.04
  140,   1.829,      349.,      177.42,   -1.36,      171.58
  141,   1.849,      440.,      226.25,   -0.51,      213.75
  142,   1.869,      519.,      285.43,   -0.57,      233.57
  143,   1.889,      571.,      348.26,   -0.16,      222.74
  144,   1.909,      691.,      404.08,    0.06,      286.92
  145,   1.929,      754.,      440.88,    0.35,      313.12
  146,   1.949,      719.,      449.17,    0.46,      269.83
  147,   1.969,      745.,      425.50,    0.40,      319.50
  148,   1.989,      680.,      373.91,    0.31,      306.09
  149,   2.009,      607.,      304.52,   -0.34,      302.48
  150,   2.029,      585.,      229.93,   -0.93,      355.07
  151,   2.049,      527.,      161.43,   -0.47,      365.57
  152,   2.070,      472.,      106.52,   -0.57,      365.48
  153,   2.090,      436.,       68.11,   -0.61,      367.89
  154,   2.110,      464.,       45.91,    0.96,      418.09
  155,   2.130,      470.,       37.89,    0.80,      432.11
  156,   2.150,      497.,       42.28,    1.08,      454.72
  157,   2.170,      485.,       57.45,    1.45,      427.55
  158,   2.190,      589.,       82.13,    0.72,      506.87
  159,   2.210,      580.,      114.35,    0.59,      465.65
  160,   2.230,      645.,      150.52,    0.66,      494.48
  161,   2.250,      707.,      185.45,    0.37,      521.55
  162,   2.270,      668.,      213.14,    0.78,      454.86
  163,   2.290,      734.,      228.18,    0.43,      505.82
  164,   2.310,      751.,      227.41,    0.12,      523.59
  165,   2.330,      759.,      211.19,    0.52,      547.81
  166,   2.350,      758.,      183.35,    0.65,      574.65
  167,   2.370,      690.,      149.90,    0.71,      540.10
  168,   2.390,      646.,      117.45,    1.03,      528.55
  169,   2.410,      676.,       91.60,    1.01,      584.40
  170,   2.431,      662.,       76.52,    0.31,      585.48
  171,   2.451,      607.,       75.15,    0.13,      531.85
  172,   2.471,      686.,       90.39,    0.16,      595.61
  173,   2.491,      690.,      124.56,    0.47,      565.44
  174,   2.511,      707.,      178.86,    0.59,      528.14
  175,   2.531,      894.,      251.51,    1.19,      642.49
  176,   2.551,      920.,      336.00,    1.84,      584.00
  177,   2.571,      996.,      420.63,    1.15,      575.37
  178,   2.591,     1083.,      490.23,    1.05,      592.77
  179,   2.611,     1141.,      530.56,    1.15,      610.44
  180,   2.631,     1117.,      532.76,   -0.26,      584.24
  181,   2.651,     1058.,      496.77,   -0.14,      561.23
  182,   2.671,      976.,      431.34,    0.00,      544.66
  183,   2.691,      876.,      350.96,   -0.26,      525.04
  184,   2.711,      806.,      271.01,   -0.47,      534.99
  185,   2.731,      779.,      203.11,   -0.18,      575.89
  186,   2.751,      714.,      152.75,   -0.37,      561.25
  187,   2.771,      685.,      119.51,   -0.22,      565.49
  188,   2.792,      651.,       99.08,    1.33,      551.92
  189,   2.812,      646.,       85.83,    1.20,      560.17
  190,   2.832,      593.,       75.07,    1.05,      517.93
  191,   2.852,      581.,       64.06,    0.81,      516.94
  192,   2.872,      615.,       52.09,   -0.41,      562.91
  193,   2.892,      534.,       39.84,   -0.23,      494.16
  194,   2.912,      549.,       28.48,   -0.73,      520.52
  195,   2.932,      536.,       18.95,   -0.32,      517.05
  196,   2.952,      479.,       11.81,    0.33,      467.19
  197,   2.972,      538.,        6.89,   -0.36,      531.11
  198,   2.992,      486.,        3.81,    0.60,      482.19
  199,   3.012,      497.,        2.17,    0.66,      494.83
  200,   3.032,      491.,        1.60,    0.51,      489.40
  201,   3.052,      475.,        2.11,    1.25,      472.89
  202,   3.072,      489.,        4.13,    0.44,      484.87
  203,   3.092,      479.,        8.91,    0.08,      470.09
  204,   3.112,      460.,       18.56,   -1.27,      441.44
  205,   3.132,      494.,       36.30,   -0.87,      457.70
  206,   3.153,      506.,       66.44,   -1.34,      439.56
  207,   3.173,      530.,      113.50,   -1.72,      416.50
  208,   3.193,      571.,      180.81,   -1.32,      390.19
  209,   3.213,      734.,      268.35,   -2.02,      465.65
  210,   3.233,      778.,      370.75,   -1.49,      407.25
  211,   3.253,      911.,      476.49,   -1.30,      434.51
  212,   3.273,     1042.,      569.34,   -1.16,      472.66
  213,   3.293,     1012.,      632.24,   -0.19,      379.76
  214,   3.313,     1119.,      652.25,   -1.25,      466.75
  215,   3.333,     1063.,      625.16,   -0.42,      437.84
  216,   3.353,     1010.,      557.27,    0.66,      452.73
  217,   3.373,      929.,      464.06,    0.37,      464.94
  218,   3.393,      790.,      367.19,    2.72,      422.81
  219,   3.413,      751.,      292.82,    2.43,      458.18
  220,   3.433,      797.,      274.79,    1.09,      522.21
  221,   3.453,      823.,      365.30,   -0.02,      457.70
  222,   3.473,     1173.,      653.51,   -2.14,      519.49
  223,   3.493,     1715.,     1287.97,   -3.08,      427.03
  224,   3.514,     2912.,     2491.81,   -2.97,      420.19
  225,   3.534,     4952.,     4553.81,   -3.30,      398.19
  226,   3.554,     7966.,     7774.52,   -2.40,      191.48
  227,   3.574,    12608.,    12358.81,   -1.68,      249.19
  228,   3.594,    18960.,    18271.39,   -0.11,      688.61
  229,   3.614,    25888.,    25108.69,    1.89,      779.31
  230,   3.634,    33152.,    32063.02,    3.29,     1088.98
  231,   3.654,    39072.,    38039.72,    4.68,     1032.28
  232,   3.674,    43040.,    41924.61,    4.92,     1115.39
  233,   3.694,    44432.,    42920.21,    4.90,     1511.79
  234,   3.714,    41840.,    40813.92,    4.14,     1026.08
  235,   3.734,    36832.,    36051.23,    2.65,      780.77
  236,   3.754,    29760.,    29586.80,    1.12,      173.20
  237,   3.774,    23048.,    22576.50,    0.09,      471.50
  238,   3.794,    16208.,    16053.98,   -1.60,      154.02
  239,   3.814,    10880.,    10713.12,   -2.05,      166.88
  240,   3.834,     6884.,     6850.05,   -2.18,       33.95
  241,   3.854,     4474.,     4438.09,   -1.46,       35.91
  242,   3.875,     3266.,     3261.39,   -0.83,        4.61
  243,   3.895,     3053.,     3035.09,   -0.47,       17.91
  244,   3.915,     3464.,     3473.55,   -0.94,       -9.55
  245,   3.935,     4060.,     4309.61,   -2.06,     -249.61
  246,   3.955,     4974.,     5290.10,   -3.89,     -316.10
  247,   3.975,     5752.,     6175.90,   -5.74,     -423.90
  248,   3.995,     6298.,     6761.55,   -6.88,     -463.55
  249,   4.015,     6430.,     6908.94,   -9.41,     -478.94
  250,   4.035,     5984.,     6577.35,   -9.01,     -593.35
  251,   4.055,     5440.,     5829.74,   -8.18,     -389.74
  252,   4.075,     4614.,     4809.02,   -5.89,     -195.02
  253,   4.095,     3345.,     3691.28,   -2.81,     -346.28
  254,   4.115,     2509.,     2636.01,   -0.27,     -127.01
  255,   4.135,     1614.,     1751.12,    3.15,     -137.12
  256,   4.155,     1020.,     1082.08,    4.67,      -62.08
  257,   4.175,      648.,      621.94,    4.87,       26.06
  258,   4.195,      381.,      332.48,    6.66,       48.52
  259,   4.215,      220.,      165.31,    5.85,       54.69
  260,   4.236,      101.,       76.44,    6.47,       24.56
  261,   4.256,       76.,       32.89,    7.60,       43.11
  262,   4.276,       65.,       13.27,    5.66,       51.73
  263,   4.296,       47.,        5.17,    4.46,       41.83
  264,   4.316,       48.,        2.25,    1.65,       45.75
  265,   4.336,       39.,        1.64,    0.49,       37.36
  266,   4.356,       44.,        2.15,    0.08,       41.85
  267,   4.376,       33.,        3.31,   -0.04,       29.69
  268,   4.396,       30.,        5.12,    0.56,       24.88
  269,   4.416,       42.,        7.37,   -0.55,       34.63
  270,   4.436,       43.,        9.88,   -0.64,       33.12
  271,   4.456,       50.,       12.35,   -0.35,       37.65
  272,   4.476,       50.,       14.37,    0.38,       35.63
  273,   4.496,       45.,       15.58,    1.10,       29.42
  274,   4.516,       42.,       15.73,    0.97,       26.27
  275,   4.536,       41.,       14.80,    0.30,       26.20
  276,   4.556,       39.,       12.99,   -0.77,       26.01
  277,   4.576,       35.,       10.62,   -0.91,       24.38
  278,   4.597,       32.,        8.11,   -0.75,       23.89
  279,   4.617,       20.,        5.79,   -0.27,       14.21
  280,   4.637,       21.,        3.88,    0.10,       17.12
  281,   4.657,       30.,        2.44,   -0.33,       27.56
  282,   4.677,       22.,        1.46,   -0.48,       20.54
  283,   4.697,       23.,        0.84,   -0.69,       22.16
  284,   4.717,       16.,        0.51,   -0.49,       15.49
  285,   4.737,       13.,        0.30,    0.48,       12.70
  286,   4.757,       14.,        0.29,   -0.74,       13.71
  287,   4.777,       15.,        0.35,   -0.82,       14.65
  288,   4.797,       10.,        0.52,   -1.66,        9.48
  289,   4.817,       20.,        0.78,   -1.56,       19.22
  290,   4.837,       13.,        1.11,   -0.26,       11.89
  291,   4.857,       14.,        1.49,    0.13,       12.51
  292,   4.877,       15.,        1.86,    0.60,       13.14
  293,   4.897,       15.,        2.18,    1.40,       12.82
  294,   4.917,       18.,        2.39,    0.69,       15.61
  295,   4.937,       12.,        2.43,   -0.09,        9.57
  296,   4.958,       13.,        2.32,   -0.42,       10.68
  297,   4.978,       12.,        2.05,   -1.64,        9.95
  298,   4.998,       14.,        1.70,   -1.52,       12.30
  299,   5.018,        8.,        1.31,   -1.36,        6.69
  300,   5.038,        9.,        0.94,   -1.20,        8.06
  301,   5.058,        6.,        0.63,   -1.12,        5.37
  302,   5.078,       10.,        0.40,   -0.86,        9.60
  303,   5.098,       15.,        0.23,   -1.04,       14.77
  304,   5.118,       11.,        0.13,    0.44,       10.87
  305,   5.138,       12.,        0.00,    1.84,       12.00
  306,   5.158,       11.,        0.03,    3.06,       10.97
  307,   5.178,        8.,        0.11,    3.02,        7.89
  308,   5.198,       13.,        0.23,    1.06,       12.77
  309,   5.218,       15.,        0.47,    0.41,       14.53
  310,   5.238,       12.,        0.87,   -0.59,       11.13
  311,   5.258,       11.,        1.51,   -0.26,        9.49
  312,   5.278,        4.,        2.46,    0.11,        1.54
  313,   5.298,        9.,        3.73,   -0.72,        5.27
  314,   5.318,       11.,        5.29,   -1.49,        5.71
  315,   5.339,       19.,        7.01,   -1.68,       11.99
  316,   5.359,       15.,        8.68,   -1.82,        6.32
  317,   5.379,       16.,       10.05,   -0.47,        5.95
  318,   5.399,       18.,       10.86,    0.78,        7.14
  319,   5.419,       18.,       10.96,    1.34,        7.04
  320,   5.439,       17.,       10.38,    0.77,        6.62
  321,   5.459,       19.,        9.19,    0.80,        9.81
  322,   5.479,       17.,        7.64,    0.58,        9.36
  323,   5.499,       12.,        5.99,    0.45,        6.01
  324,   5.519,        9.,        4.49,    0.40,        4.51
  325,   5.539,       12.,        3.28,    0.28,        8.72
  326,   5.559,        7.,        2.43,   -0.09,        4.57
  327,   5.579,        6.,        1.89,   -1.24,        4.11
  328,   5.599,        5.,        1.59,   -1.13,        3.41
  329,   5.619,        7.,        1.43,   -0.59,        5.57
  330,   5.639,        7.,        1.29,   -1.26,        5.71
  331,   5.659,        3.,        1.16,   -0.13,        1.84
  332,   5.679,        7.,        1.12,   -0.08,        5.88
  333,   5.700,        7.,        1.02,   -0.12,        5.98
  334,   5.720,        4.,        0.93,    0.61,        3.07
  335,   5.740,        8.,        0.96,   -0.35,        7.04
  336,   5.760,        6.,        1.08,    0.60,        4.92
  337,   5.780,        4.,        1.36,    0.44,        2.64
  338,   5.800,        8.,        1.78,    0.14,        6.22
  339,   5.820,        4.,        2.34,    1.35,        1.66
  340,   5.840,       10.,        2.98,    0.93,        7.02
  341,   5.860,        7.,        3.61,    0.63,        3.39
  342,   5.880,        7.,        4.18,    0.85,        2.82
  343,   5.900,       11.,        4.58,   -0.38,        6.42
  344,   5.920,        9.,        4.74,   -0.14,        4.26
  345,   5.940,        5.,        4.66,   -1.36,        0.34
  346,   5.960,        7.,        4.34,   -1.40,        2.66
  347,   5.980,        4.,        3.92,   -0.87,        0.08
  348,   6.000,        4.,        3.31,   -1.37,        0.69
  349,   6.020,        3.,        2.67,   -0.75,        0.33
  350,   6.040,        6.,        2.06,    0.11,        3.94
  351,   6.061,        5.,        1.61,    0.06,        3.39
  352,   6.081,        4.,        1.19,    0.03,        2.81
  353,   6.101,        5.,        0.97,    0.29,        4.03
  354,   6.121,        5.,        0.88,    0.63,        4.12
  355,   6.141,        3.,        1.05,    0.56,        1.95
  356,   6.161,        1.,        1.50,    0.31,       -0.50
  357,   6.181,        3.,        2.49,   -0.21,        0.51
  358,   6.201,        7.,        4.21,   -1.21,        2.79
  359,   6.221,        9.,        7.07,   -1.94,        1.93
  360,   6.241,       17.,       11.44,   -1.16,        5.56
  361,   6.261,       19.,       17.70,   -0.77,        1.30
  362,   6.281,       27.,       26.00,    0.34,        1.00
  363,   6.301,       35.,       36.11,    0.66,       -1.11
  364,   6.321,       54.,       47.32,    0.22,        6.68
  365,   6.341,       64.,       58.40,    0.28,        5.60
  366,   6.361,       81.,       67.79,    0.33,       13.21
  367,   6.381,       85.,       73.94,    1.03,       11.06
  368,   6.401,       74.,       75.75,    1.14,       -1.75
  369,   6.422,       80.,       72.84,    0.36,        7.16
  370,   6.442,       68.,       65.74,   -0.19,        2.26
  371,   6.462,       67.,       55.67,   -0.95,       11.33
  372,   6.482,       50.,       44.24,   -1.05,        5.76
  373,   6.502,       34.,       32.98,    0.41,        1.02
  374,   6.522,       24.,       23.02,    0.45,        0.98
  375,   6.542,       19.,       15.13,    0.93,        3.87
  376,   6.562,       21.,        9.33,    0.63,       11.67
  377,   6.582,       21.,        5.41,    0.00,       15.59
  378,   6.602,       10.,        2.94,    0.75,        7.06
  379,   6.622,        5.,        1.51,    1.33,        3.49
  380,   6.642,        3.,        0.73,    1.88,        2.27
  381,   6.662,        2.,        0.33,    1.38,        1.67
  382,   6.682,        5.,        0.12,   -1.15,        4.88
  383,   6.702,        5.,        0.00,   -2.29,        5.00
  384,   6.722,        2.,        0.01,   -2.05,        1.99
  385,   6.742,        4.,        0.01,   -1.61,        3.99
  386,   6.762,        1.,        0.02,    0.40,        0.98
  387,   6.783,        2.,        0.08,    0.67,        1.92
  388,   6.803,        3.,        0.21,   -0.46,        2.79
  389,   6.823,        1.,        0.38,   -0.11,        0.62
  390,   6.843,        4.,        0.67,    0.10,        3.33
  391,   6.863,        3.,        1.13,   -0.14,        1.87
  392,   6.883,        0.,        1.90,    0.01,       -1.90
  393,   6.903,        6.,        2.88,    0.08,        3.12
  394,   6.923,        6.,        4.17,    0.23,        1.83
