 File:672018.spo  Solution Type:Thick  fitting  891 channels ( 110-1000)
 Channel#, E(keV),   Data,        Fit, Residual,    Data-Fit
  110,   0.609,      142.,        3.24,    1.18,      138.76
  111,   0.619,      118.,        2.87,    0.94,      115.13
  112,   0.629,      131.,        2.49,    0.80,      128.51
  113,   0.639,      115.,        2.11,    0.55,      112.89
  114,   0.649,      118.,        1.76,   -0.36,      116.24
  115,   0.659,      137.,        1.43,   -0.98,      135.57
  116,   0.669,      122.,        1.15,   -1.64,      120.85
  117,   0.679,      121.,        0.92,   -2.29,      120.08
  118,   0.689,      132.,        0.74,   -3.00,      131.26
  119,   0.699,      125.,        0.64,   -3.92,      124.36
  120,   0.709,      114.,        0.58,   -4.10,      113.42
  121,   0.719,      124.,        0.59,   -3.83,      123.41
  122,   0.729,      127.,        0.59,   -4.42,      126.41
  123,   0.739,      156.,        0.63,   -4.38,      155.37
  124,   0.750,      140.,        0.80,   -3.45,      139.20
  125,   0.760,      155.,        1.00,   -2.44,      154.00
  126,   0.770,      146.,        1.30,   -1.14,      144.70
  127,   0.780,      162.,        1.70,   -1.01,      160.30
  128,   0.790,      164.,        2.17,   -0.92,      161.83
  129,   0.800,      171.,        2.83,   -0.55,      168.17
  130,   0.810,      181.,        3.66,   -1.14,      177.34
  131,   0.820,      204.,        4.77,   -1.16,      199.23
  132,   0.830,      226.,        6.30,   -2.16,      219.70
  133,   0.840,      195.,        8.44,   -1.55,      186.56
  134,   0.850,      197.,       11.49,   -1.53,      185.51
  135,   0.860,      223.,       15.83,   -1.17,      207.17
  136,   0.870,      234.,       22.00,   -0.35,      212.00
  137,   0.880,      229.,       30.65,   -0.16,      198.35
  138,   0.890,      233.,       42.55,    0.69,      190.45
  139,   0.900,      297.,       58.57,    0.71,      238.43
  140,   0.910,      337.,       79.60,    1.37,      257.40
  141,   0.920,      347.,      106.42,    2.47,      240.58
  142,   0.931,      417.,      139.64,    3.32,      277.36
  143,   0.941,      465.,      179.49,    3.27,      285.51
  144,   0.951,      473.,      225.71,    3.16,      247.29
  145,   0.961,      570.,      277.44,    3.66,      292.56
  146,   0.971,      606.,      333.13,    4.40,      272.87
  147,   0.981,      710.,      390.55,    4.11,      319.45
  148,   0.991,      749.,      446.97,    3.04,      302.03
  149,   1.001,      797.,      499.29,    2.53,      297.71
  150,   1.011,      832.,      544.18,    2.57,      287.82
  151,   1.021,      840.,      578.75,    1.44,      261.25
  152,   1.031,      892.,      600.61,    1.47,      291.39
  153,   1.041,      885.,      608.23,    0.33,      276.77
  154,   1.051,      874.,      601.31,    0.39,      272.69
  155,   1.061,      821.,      580.43,   -0.50,      240.57
  156,   1.071,      822.,      547.53,   -0.78,      274.47
  157,   1.081,      820.,      505.26,   -1.67,      314.74
  158,   1.091,      727.,      456.94,   -1.59,      270.06
  159,   1.101,      697.,      406.22,   -1.70,      290.78
  160,   1.112,      627.,      356.66,   -1.61,      270.34
  161,   1.122,      628.,      311.47,   -1.22,      316.53
  162,   1.132,      556.,      273.25,   -0.25,      282.75
  163,   1.142,      555.,      243.83,    0.76,      311.17
  164,   1.152,      496.,      224.19,    2.01,      271.81
  165,   1.162,      539.,      214.40,    2.70,      324.60
  166,   1.172,      491.,      213.91,    2.86,      277.09
  167,   1.182,      515.,      221.29,    2.73,      293.71
  168,   1.192,      550.,      234.73,    3.13,      315.27
  169,   1.202,      555.,      251.93,    1.77,      303.07
  170,   1.212,      566.,      270.51,    1.34,      295.49
  171,   1.222,      635.,      288.10,    0.54,      346.90
  172,   1.232,      651.,      302.55,    0.68,      348.45
  173,   1.242,      606.,      312.13,   -0.14,      293.87
  174,   1.252,      601.,      315.69,    0.28,      285.31
  175,   1.262,      607.,      312.66,    0.09,      294.34
  176,   1.272,      549.,      303.18,    0.39,      245.82
  177,   1.282,      561.,      288.05,    0.00,      272.95
  178,   1.293,      539.,      268.62,    0.55,      270.38
  179,   1.303,      511.,      246.63,   -0.80,      264.37
  180,   1.313,      514.,      224.23,   -0.58,      289.77
  181,   1.323,      505.,      203.64,   -0.40,      301.36
  182,   1.333,      463.,      186.89,   -0.22,      276.11
  183,   1.343,      489.,      176.05,   -0.13,      312.95
  184,   1.353,      451.,      172.76,    1.01,      278.24
  185,   1.363,      475.,      178.20,    0.94,      296.80
  186,   1.373,      477.,      193.21,    2.48,      283.79
  187,   1.383,      522.,      217.95,    2.66,      304.05
  188,   1.393,      538.,      251.89,    2.62,      286.11
  189,   1.403,      554.,      293.97,    1.89,      260.03
  190,   1.413,      618.,      342.37,    2.38,      275.63
  191,   1.423,      676.,      394.67,    1.62,      281.33
  192,   1.433,      695.,      447.98,    1.69,      247.02
  193,   1.443,      815.,      499.11,    1.35,      315.89
  194,   1.453,      756.,      544.75,    0.72,      211.25
  195,   1.463,      822.,      581.80,   -0.16,      240.20
  196,   1.474,      830.,      607.72,   -0.37,      222.28
  197,   1.484,      889.,      620.71,   -1.02,      268.29
  198,   1.494,      844.,      619.96,   -1.70,      224.04
  199,   1.504,      860.,      605.67,   -2.30,      254.33
  200,   1.514,      812.,      579.32,   -2.75,      232.68
  201,   1.524,      764.,      543.10,   -3.27,      220.90
  202,   1.534,      703.,      500.21,   -2.80,      202.79
  203,   1.544,      682.,      454.22,   -2.93,      227.78
  204,   1.554,      624.,      409.32,   -2.43,      214.68
  205,   1.564,      544.,      369.39,   -3.22,      174.61
  206,   1.574,      556.,      338.42,   -2.92,      217.58
  207,   1.584,      512.,      320.03,   -3.29,      191.97
  208,   1.594,      543.,      317.46,   -3.45,      225.54
  209,   1.604,      542.,      333.33,   -3.99,      208.67
  210,   1.614,      586.,      369.53,   -3.97,      216.47
  211,   1.624,      702.,      427.15,   -4.28,      274.85
  212,   1.634,      714.,      506.24,   -3.96,      207.76
  213,   1.644,      845.,      605.61,   -3.63,      239.39
  214,   1.655,      978.,      722.53,   -3.54,      255.47
  215,   1.665,     1040.,      853.07,   -3.78,      186.93
  216,   1.675,     1233.,      991.69,   -3.64,      241.31
  217,   1.685,     1400.,     1131.73,   -3.33,      268.27
  218,   1.695,     1564.,     1265.71,   -2.74,      298.29
  219,   1.705,     1672.,     1385.92,   -2.99,      286.08
  220,   1.715,     1761.,     1485.05,   -2.45,      275.95
  221,   1.725,     1876.,     1556.79,   -1.98,      319.21
  222,   1.735,     1860.,     1596.61,   -1.94,      263.39
  223,   1.745,     1954.,     1602.16,   -0.33,      351.84
  224,   1.755,     1951.,     1573.83,    0.83,      377.17
  225,   1.765,     1936.,     1514.07,    2.59,      421.93
  226,   1.775,     1788.,     1427.80,    3.20,      360.20
  227,   1.785,     1692.,     1321.41,    3.90,      370.59
  228,   1.795,     1644.,     1202.43,    5.29,      441.57
  229,   1.805,     1497.,     1078.63,    6.51,      418.37
  230,   1.815,     1402.,      957.48,    8.54,      444.52
  231,   1.825,     1322.,      845.35,    8.70,      476.65
  232,   1.835,     1268.,      747.20,    9.64,      520.80
  233,   1.846,     1094.,      666.31,    9.08,      427.69
  234,   1.856,      998.,      604.22,    9.00,      393.78
  235,   1.866,     1085.,      560.79,    8.60,      524.21
  236,   1.876,     1037.,      534.43,    8.42,      502.57
  237,   1.886,     1003.,      522.45,    7.93,      480.55
  238,   1.896,      929.,      521.33,    6.26,      407.67
  239,   1.906,      997.,      526.93,    4.62,      470.07
  240,   1.916,      896.,      535.44,    2.26,      360.56
  241,   1.926,      896.,      543.01,    1.87,      352.99
  242,   1.936,      895.,      546.43,    1.81,      348.57
  243,   1.946,      969.,      543.28,    0.44,      425.72
  244,   1.956,      893.,      532.02,   -0.47,      360.98
  245,   1.966,      795.,      512.06,   -0.99,      282.94
  246,   1.976,      761.,      483.68,   -1.23,      277.32
  247,   1.986,      699.,      447.90,   -1.99,      251.10
  248,   1.996,      683.,      406.48,   -1.05,      276.52
  249,   2.006,      684.,      361.40,   -1.59,      322.60
  250,   2.016,      661.,      314.66,   -1.77,      346.34
  251,   2.027,      574.,      268.41,   -1.86,      305.59
  252,   2.037,      550.,      224.35,   -2.12,      325.65
  253,   2.047,      461.,      183.88,   -1.04,      277.12
  254,   2.057,      419.,      147.89,   -0.35,      271.11
  255,   2.067,      386.,      117.02,    0.88,      268.98
  256,   2.077,      280.,       91.42,    1.35,      188.58
  257,   2.087,      303.,       71.27,    0.21,      231.73
  258,   2.097,      296.,       55.84,   -1.33,      240.16
  259,   2.107,      230.,       44.96,   -1.66,      185.04
  260,   2.117,      218.,       38.14,   -2.88,      179.86
  261,   2.127,      243.,       35.22,   -4.34,      207.78
  262,   2.137,      212.,       35.76,   -4.86,      176.24
  263,   2.147,      224.,       39.55,   -5.87,      184.45
  264,   2.157,      210.,       46.50,   -5.87,      163.50
  265,   2.167,      229.,       56.83,   -5.82,      172.17
  266,   2.177,      218.,       70.22,   -5.08,      147.78
  267,   2.187,      254.,       86.74,   -4.56,      167.26
  268,   2.197,      225.,      106.15,   -2.82,      118.85
  269,   2.208,      300.,      128.12,   -3.31,      171.88
  270,   2.218,      312.,      152.11,   -2.84,      159.89
  271,   2.228,      293.,      177.49,   -2.59,      115.51
  272,   2.238,      368.,      203.23,   -3.02,      164.77
  273,   2.248,      399.,      228.32,   -2.16,      170.68
  274,   2.258,      386.,      251.60,   -1.61,      134.40
  275,   2.268,      441.,      271.83,   -1.41,      169.17
  276,   2.278,      401.,      287.87,   -0.91,      113.13
  277,   2.288,      421.,      298.79,   -0.88,      122.21
  278,   2.298,      433.,      303.96,   -1.37,      129.04
  279,   2.308,      422.,      303.07,   -0.66,      118.93
  280,   2.318,      469.,      296.20,   -1.05,      172.80
  281,   2.328,      402.,      283.79,   -1.42,      118.21
  282,   2.338,      410.,      266.66,   -1.53,      143.34
  283,   2.348,      365.,      245.76,   -2.10,      119.24
  284,   2.358,      353.,      222.41,   -2.08,      130.59
  285,   2.368,      308.,      197.77,   -2.07,      110.23
  286,   2.378,      301.,      173.06,   -1.89,      127.94
  287,   2.389,      290.,      149.29,   -1.75,      140.71
  288,   2.399,      272.,      127.46,   -1.89,      144.54
  289,   2.409,      230.,      108.20,   -0.79,      121.80
  290,   2.419,      207.,       91.96,   -1.16,      115.04
  291,   2.429,      209.,       79.07,   -0.76,      129.93
  292,   2.439,      188.,       69.53,   -0.51,      118.47
  293,   2.449,      188.,       63.65,    0.18,      124.35
  294,   2.459,      198.,       61.42,    0.08,      136.58
  295,   2.469,      217.,       62.74,   -0.20,      154.26
  296,   2.479,      224.,       67.74,    0.13,      156.26
  297,   2.489,      209.,       76.37,    0.65,      132.63
  298,   2.499,      201.,       88.63,    1.46,      112.37
  299,   2.509,      256.,      104.43,    1.21,      151.57
  300,   2.519,      286.,      123.59,    1.46,      162.41
  301,   2.529,      277.,      145.76,    1.99,      131.24
  302,   2.539,      309.,      170.40,    2.30,      138.60
  303,   2.549,      336.,      196.61,    2.29,      139.39
  304,   2.559,      362.,      223.36,    1.87,      138.64
  305,   2.570,      398.,      249.39,    1.35,      148.61
  306,   2.580,      388.,      273.49,    1.47,      114.51
  307,   2.590,      426.,      294.32,    1.07,      131.68
  308,   2.600,      472.,      310.57,    0.34,      161.43
  309,   2.610,      467.,      321.24,    0.30,      145.76
  310,   2.620,      468.,      325.70,   -0.06,      142.30
  311,   2.630,      453.,      323.64,   -0.37,      129.36
  312,   2.640,      415.,      315.19,   -0.51,       99.81
  313,   2.650,      432.,      300.87,   -1.46,      131.13
  314,   2.660,      394.,      281.60,   -1.26,      112.40
  315,   2.670,      390.,      258.46,   -2.22,      131.54
  316,   2.680,      365.,      232.92,   -2.84,      132.08
  317,   2.690,      321.,      206.18,   -3.04,      114.82
  318,   2.700,      296.,      179.62,   -3.16,      116.38
  319,   2.710,      286.,      154.28,   -3.01,      131.72
  320,   2.720,      238.,      131.00,   -2.74,      107.00
  321,   2.730,      252.,      110.39,   -2.01,      141.61
  322,   2.740,      183.,       92.75,   -1.31,       90.25
  323,   2.751,      208.,       78.13,   -0.58,      129.87
  324,   2.761,      197.,       66.37,   -0.48,      130.63
  325,   2.771,      182.,       57.17,   -0.47,      124.83
  326,   2.781,      188.,       50.10,   -0.16,      137.90
  327,   2.791,      202.,       44.73,    0.43,      157.27
  328,   2.801,      185.,       40.60,    0.15,      144.40
  329,   2.811,      184.,       37.30,    0.67,      146.70
  330,   2.821,      199.,       34.49,    0.43,      164.51
  331,   2.831,      191.,       31.92,    0.98,      159.08
  332,   2.841,      175.,       29.41,    1.35,      145.59
  333,   2.851,      149.,       26.86,    0.85,      122.14
  334,   2.861,      150.,       24.24,    0.51,      125.76
  335,   2.871,      173.,       21.55,    0.40,      151.45
  336,   2.881,      160.,       18.86,    0.06,      141.14
  337,   2.891,      174.,       16.16,   -0.81,      157.84
  338,   2.901,      160.,       13.66,   -0.87,      146.34
  339,   2.911,      148.,       11.30,   -2.43,      136.70
  340,   2.921,      158.,        9.20,   -3.99,      148.80
  341,   2.932,      148.,        7.35,   -3.62,      140.65
  342,   2.942,      145.,        5.75,   -2.84,      139.25
  343,   2.952,      164.,        4.42,   -2.72,      159.58
  344,   2.962,      175.,        3.28,   -1.91,      171.72
  345,   2.972,      159.,        2.43,   -1.02,      156.57
  346,   2.982,      162.,        1.77,   -1.02,      160.23
  347,   2.992,      161.,        1.32,   -0.37,      159.68
  348,   3.002,      142.,        0.98,    1.30,      141.02
  349,   3.012,      192.,        0.76,    1.25,      191.24
  350,   3.022,      170.,        0.65,    1.07,      169.35
  351,   3.032,      168.,        0.65,    1.74,      167.35
  352,   3.042,      186.,        0.73,    0.61,      185.27
  353,   3.052,      196.,        1.02,    0.13,      194.98
  354,   3.062,      173.,        1.41,   -0.25,      171.59
  355,   3.072,      198.,        2.03,   -0.19,      195.97
  356,   3.082,      213.,        2.89,   -0.72,      210.11
  357,   3.092,      196.,        4.04,   -0.25,      191.96
  358,   3.102,      164.,        5.57,   -2.13,      158.43
  359,   3.113,      218.,        7.53,   -1.81,      210.47
  360,   3.123,      173.,       10.02,   -1.14,      162.98
  361,   3.133,      196.,       13.12,   -1.83,      182.88
  362,   3.143,      191.,       16.87,   -2.57,      174.13
  363,   3.153,      234.,       21.35,   -2.58,      212.65
  364,   3.163,      205.,       26.57,   -3.89,      178.43
  365,   3.173,      265.,       32.52,   -3.75,      232.48
  366,   3.183,      209.,       39.17,   -3.47,      169.83
  367,   3.193,      259.,       46.41,   -4.16,      212.59
  368,   3.203,      297.,       54.12,   -4.73,      242.88
  369,   3.213,      261.,       62.10,   -4.41,      198.90
  370,   3.223,      292.,       70.13,   -3.86,      221.87
  371,   3.233,      321.,       77.95,   -2.92,      243.05
  372,   3.243,      301.,       85.27,   -2.34,      215.73
  373,   3.253,      381.,       91.81,   -1.41,      289.19
  374,   3.263,      351.,       97.27,   -2.08,      253.73
  375,   3.273,      300.,      101.41,   -1.48,      198.59
  376,   3.283,      356.,      104.03,   -1.07,      251.97
  377,   3.294,      363.,      104.99,   -1.05,      258.01
  378,   3.304,      379.,      104.26,   -1.20,      274.74
  379,   3.314,      405.,      101.86,   -1.29,      303.14
  380,   3.324,      416.,       97.90,   -1.31,      318.10
  381,   3.334,      379.,       92.60,   -1.42,      286.40
  382,   3.344,      376.,       86.30,   -0.97,      289.70
  383,   3.354,      394.,       79.39,   -0.63,      314.61
  384,   3.364,      378.,       72.49,    0.73,      305.51
  385,   3.374,      411.,       66.15,    1.49,      344.85
  386,   3.384,      386.,       61.41,    2.40,      324.59
  387,   3.394,      395.,       59.43,    3.43,      335.57
  388,   3.404,      409.,       62.03,    4.17,      346.97
  389,   3.414,      402.,       71.82,    4.99,      330.18
  390,   3.424,      464.,       92.58,    5.88,      371.42
  391,   3.434,      512.,      129.77,    5.37,      382.23
  392,   3.444,      543.,      191.14,    4.90,      351.86
  393,   3.454,      648.,      287.50,    4.44,      360.50
  394,   3.464,      880.,      433.49,    4.00,      446.51
  395,   3.475,     1058.,      648.47,    2.88,      409.53
  396,   3.485,     1381.,      957.21,    1.44,      423.79
  397,   3.495,     1813.,     1390.38,    0.13,      422.62
  398,   3.505,     2329.,     1984.64,   -1.70,      344.36
  399,   3.515,     3163.,     2781.95,   -2.51,      381.05
  400,   3.525,     4136.,     3828.35,   -3.27,      307.65
  401,   3.535,     5482.,     5171.07,   -3.72,      310.93
  402,   3.545,     7220.,     6855.22,   -3.52,      364.78
  403,   3.555,     9132.,     8918.95,   -3.33,      213.05
  404,   3.565,    11604.,    11387.93,   -2.35,      216.07
  405,   3.575,    14356.,    14269.61,   -1.66,       86.39
  406,   3.585,    17536.,    17547.09,   -0.28,      -11.09
  407,   3.595,    21576.,    21175.00,    1.83,      401.00
  408,   3.605,    25240.,    25076.20,    2.83,      163.80
  409,   3.615,    29408.,    29141.92,    4.29,      266.08
  410,   3.625,    33552.,    33234.67,    4.71,      317.33
  411,   3.635,    37632.,    37194.70,    5.49,      437.30
  412,   3.645,    41552.,    40849.43,    5.98,      702.57
  413,   3.656,    44512.,    44025.72,    6.35,      486.28
  414,   3.666,    47280.,    46563.07,    6.25,      716.93
  415,   3.676,    49248.,    48326.96,    6.27,      921.04
  416,   3.686,    49712.,    49220.67,    5.32,      491.33
  417,   3.696,    49760.,    49195.05,    4.36,      564.95
  418,   3.706,    48480.,    48251.65,    3.82,      228.35
  419,   3.716,    46704.,    46442.65,    2.68,      261.35
  420,   3.726,    44080.,    43867.54,    2.12,      212.46
  421,   3.736,    40624.,    40663.07,    0.15,      -39.07
  422,   3.746,    36784.,    36991.52,   -0.61,     -207.52
  423,   3.756,    32736.,    33027.39,   -2.31,     -291.39
  424,   3.766,    28664.,    28944.21,   -4.16,     -280.21
  425,   3.776,    24448.,    24902.38,   -4.74,     -454.38
  426,   3.786,    20832.,    21040.31,   -5.64,     -208.31
  427,   3.796,    16992.,    17467.83,   -5.95,     -475.83
  428,   3.806,    14212.,    14263.81,   -6.37,      -51.81
  429,   3.816,    11048.,    11476.06,   -6.19,     -428.06
  430,   3.826,     9056.,     9124.68,   -5.40,      -68.68
  431,   3.837,     6972.,     7206.30,   -4.36,     -234.30
  432,   3.847,     5614.,     5699.82,   -2.99,      -85.82
  433,   3.857,     4424.,     4571.93,   -1.64,     -147.93
  434,   3.867,     3705.,     3782.17,   -0.54,      -77.17
