 File:An·lise amostras  Solution Type:Thick  fitting 1231 channels (  70-1300)
 Channel#, E(keV),   Data,        Fit, Residual,    Data-Fit
   70,   0.422,     3789.,        1.07,    0.02,     3787.93
   71,   0.442,     3663.,        1.60,    0.01,     3661.40
   72,   0.462,     3619.,        2.32,   -0.01,     3616.68
   73,   0.482,     3473.,        3.21,   -0.01,     3469.79
   74,   0.503,     3445.,        4.20,   -0.03,     3440.80
   75,   0.523,     3296.,        5.14,   -0.03,     3290.86
   76,   0.543,     3263.,        5.85,   -0.04,     3257.15
   77,   0.563,     3201.,        6.14,   -0.07,     3194.86
   78,   0.583,     3265.,        5.94,   -0.09,     3259.06
   79,   0.603,     3107.,        5.32,   -0.06,     3101.68
   80,   0.623,     2969.,        4.44,   -0.06,     2964.56
   81,   0.643,     2959.,        3.54,   -0.01,     2955.46
   82,   0.663,     3019.,        2.86,   -0.02,     3016.14
   83,   0.683,     2913.,        2.70,   -0.04,     2910.30
   84,   0.703,     3040.,        3.16,   -0.01,     3036.84
   85,   0.723,     2914.,        4.52,   -0.04,     2909.48
   86,   0.743,     2750.,        7.06,   -0.04,     2742.94
   87,   0.763,     2841.,       11.04,   -0.07,     2829.96
   88,   0.784,     2708.,       16.74,   -0.14,     2691.26
   89,   0.804,     2812.,       23.75,   -0.14,     2788.25
   90,   0.824,     2696.,       31.27,   -0.07,     2664.73
   91,   0.844,     2786.,       37.99,   -0.03,     2748.01
   92,   0.864,     2812.,       42.46,    0.05,     2769.54
   93,   0.884,     2786.,       43.59,    0.02,     2742.41
   94,   0.904,     2790.,       41.05,    0.05,     2748.95
   95,   0.924,     2696.,       35.56,   -0.01,     2660.44
   96,   0.944,     2645.,       28.48,   -0.05,     2616.52
   97,   0.964,     2657.,       21.31,   -0.08,     2635.69
   98,   0.984,     2601.,       15.35,   -0.17,     2585.65
   99,   1.004,     2681.,       11.09,   -0.10,     2669.91
  100,   1.024,     2641.,        8.48,   -0.06,     2632.52
  101,   1.044,     2614.,        7.05,    0.00,     2606.95
  102,   1.065,     2674.,        6.22,    0.05,     2667.78
  103,   1.085,     2590.,        5.65,    0.02,     2584.35
  104,   1.105,     2633.,        4.98,    0.03,     2628.02
  105,   1.125,     2594.,        4.11,    0.06,     2589.89
  106,   1.145,     2568.,        3.25,    0.02,     2564.75
  107,   1.165,     2600.,        2.41,   -0.02,     2597.59
  108,   1.185,     2596.,        1.70,   -0.13,     2594.30
  109,   1.205,     2647.,        1.16,   -0.14,     2645.84
  110,   1.225,     2509.,        0.78,   -0.03,     2508.22
  111,   1.245,     2521.,        0.56,   -0.09,     2520.44
  112,   1.265,     2543.,        0.45,   -0.10,     2542.55
  113,   1.285,     2622.,        0.61,   -0.25,     2621.39
  114,   1.305,     2580.,        1.16,   -0.08,     2578.84
  115,   1.326,     2574.,        2.46,    0.05,     2571.54
  116,   1.346,     2528.,        5.11,    0.03,     2522.89
  117,   1.366,     2619.,       10.35,   -0.21,     2608.65
  118,   1.386,     2646.,       20.04,   -0.40,     2625.96
  119,   1.406,     2630.,       36.89,   -0.36,     2593.11
  120,   1.426,     2589.,       64.41,   -0.05,     2524.59
  121,   1.446,     2658.,      106.08,    0.29,     2551.92
  122,   1.466,     2822.,      164.05,    0.40,     2657.95
  123,   1.486,     2965.,      237.21,    0.46,     2727.79
  124,   1.506,     3032.,      320.17,    0.59,     2711.83
  125,   1.526,     3069.,      403.72,    0.28,     2665.28
  126,   1.546,     3128.,      478.56,   -0.35,     2649.44
  127,   1.566,     3181.,      540.77,   -0.85,     2640.23
  128,   1.586,     3064.,      596.89,   -1.33,     2467.11
  129,   1.607,     3226.,      665.38,   -1.39,     2560.62
  130,   1.627,     3405.,      772.02,   -0.58,     2632.98
  131,   1.647,     3577.,      939.31,    0.04,     2637.69
  132,   1.667,     3930.,     1175.32,    0.90,     2754.68
  133,   1.687,     4528.,     1467.69,    1.33,     3060.31
  134,   1.707,     4702.,     1788.02,    1.15,     2913.98
  135,   1.727,     4986.,     2107.65,    0.61,     2878.35
  136,   1.747,     5246.,     2420.30,   -0.29,     2825.70
  137,   1.767,     5450.,     2762.68,   -1.45,     2687.32
  138,   1.787,     5862.,     3221.79,   -1.86,     2640.21
  139,   1.807,     6556.,     3923.14,   -1.78,     2632.86
  140,   1.827,     7686.,     4993.28,   -1.24,     2692.72
  141,   1.847,     9408.,     6502.04,   -0.17,     2905.96
  142,   1.867,    11656.,     8400.07,    0.85,     3255.93
  143,   1.888,    13892.,    10479.24,    1.82,     3412.76
  144,   1.908,    16016.,    12388.11,    2.29,     3627.89
  145,   1.928,    17232.,    13716.20,    2.29,     3515.80
  146,   1.948,    17680.,    14126.30,    1.49,     3553.70
  147,   1.968,    16648.,    13479.75,    0.55,     3168.25
  148,   1.988,    14896.,    11891.88,   -0.61,     3004.12
  149,   2.008,    12336.,     9690.44,   -1.61,     2645.56
  150,   2.028,    10056.,     7295.88,   -2.32,     2760.12
  151,   2.048,     7870.,     5087.18,   -2.41,     2782.82
  152,   2.068,     6206.,     3309.14,   -2.17,     2896.86
  153,   2.088,     5146.,     2051.12,   -1.24,     3094.88
  154,   2.108,     4544.,     1282.92,   -0.23,     3261.08
  155,   2.128,     4208.,      913.78,    0.72,     3294.22
  156,   2.148,     4348.,      841.49,    1.40,     3506.51
  157,   2.169,     4426.,      977.10,    1.65,     3448.90
  158,   2.189,     4742.,     1246.74,    1.53,     3495.26
  159,   2.209,     5090.,     1581.83,    1.37,     3508.17
  160,   2.229,     5566.,     1911.76,    0.90,     3654.24
  161,   2.249,     5696.,     2166.39,    0.99,     3529.61
  162,   2.269,     5884.,     2288.06,    0.53,     3595.94
  163,   2.289,     5988.,     2246.86,    0.18,     3741.14
  164,   2.309,     5820.,     2049.50,    0.13,     3770.50
  165,   2.329,     5278.,     1736.95,    0.05,     3541.05
  166,   2.349,     4986.,     1369.92,   -0.03,     3616.08
  167,   2.369,     4790.,     1010.22,   -0.51,     3779.78
  168,   2.389,     4436.,      705.63,   -0.83,     3730.37
  169,   2.409,     4190.,      484.12,   -0.32,     3705.88
  170,   2.429,     4136.,      357.21,   -0.06,     3778.79
  171,   2.450,     4146.,      328.79,   -0.05,     3817.21
  172,   2.470,     4338.,      403.78,    0.01,     3934.22
  173,   2.490,     4376.,      589.06,    0.01,     3786.94
  174,   2.510,     4800.,      889.39,   -0.17,     3910.61
  175,   2.530,     5248.,     1294.58,   -0.04,     3953.42
  176,   2.550,     5804.,     1769.42,    0.57,     4034.58
  177,   2.570,     6042.,     2249.02,   -0.36,     3792.98
  178,   2.590,     6664.,     2648.73,    0.18,     4015.27
  179,   2.610,     6960.,     2887.10,   -0.27,     4072.90
  180,   2.630,     7122.,     2912.63,   -0.65,     4209.37
  181,   2.650,     6608.,     2722.99,   -1.26,     3885.01
  182,   2.670,     6602.,     2366.31,   -1.32,     4235.69
  183,   2.690,     6016.,     1924.00,   -1.27,     4092.00
  184,   2.710,     5642.,     1482.61,   -1.38,     4159.39
  185,   2.731,     5294.,     1108.13,   -1.69,     4185.87
  186,   2.751,     5068.,      832.04,   -0.72,     4235.96
  187,   2.771,     5038.,      652.15,   -1.09,     4385.85
  188,   2.791,     4972.,      544.15,   -0.98,     4427.85
  189,   2.811,     5046.,      476.62,   -0.18,     4569.38
  190,   2.831,     5084.,      423.08,   -0.90,     4660.92
  191,   2.851,     4950.,      368.26,   -0.91,     4581.74
  192,   2.871,     4990.,      307.92,   -0.76,     4682.08
  193,   2.891,     5122.,      245.29,   -1.05,     4876.71
  194,   2.911,     4892.,      186.20,   -2.10,     4705.80
  195,   2.931,     4996.,      135.48,   -2.61,     4860.52
  196,   2.951,     5208.,       95.36,   -3.17,     5112.64
  197,   2.971,     5204.,       66.00,   -2.74,     5138.00
  198,   2.991,     5276.,       46.90,   -1.89,     5229.10
  199,   3.012,     5446.,       39.10,   -0.54,     5406.90
  200,   3.032,     5432.,       48.58,    0.96,     5383.42
  201,   3.052,     5732.,       92.18,    0.86,     5639.82
  202,   3.072,     6140.,      207.19,    1.17,     5932.81
  203,   3.092,     6360.,      466.87,    0.52,     5893.13
  204,   3.112,     7178.,      999.11,   -0.87,     6178.89
  205,   3.132,     8052.,     2001.76,   -2.07,     6050.24
  206,   3.152,     9916.,     3739.13,   -3.27,     6176.87
  207,   3.172,    12732.,     6501.46,   -4.47,     6230.54
  208,   3.192,    16744.,    10513.57,   -4.20,     6230.43
  209,   3.212,    22256.,    15801.73,   -3.46,     6454.27
  210,   3.232,    28600.,    22062.05,   -2.91,     6537.95
  211,   3.252,    35616.,    28601.48,   -1.96,     7014.52
  212,   3.272,    42112.,    34418.37,   -2.14,     7693.63
  213,   3.293,    46976.,    38436.39,   -2.36,     8539.61
  214,   3.313,    48320.,    39826.68,   -2.38,     8493.32
  215,   3.333,    47408.,    38292.86,   -1.52,     9115.14
  216,   3.353,    42912.,    34186.56,    0.36,     8725.44
  217,   3.373,    37408.,    28416.10,    2.18,     8991.90
  218,   3.393,    31776.,    22210.29,    3.10,     9565.71
  219,   3.413,    27072.,    16903.95,    2.00,    10168.05
  220,   3.433,    24800.,    13918.40,   -0.35,    10881.60
  221,   3.453,    26816.,    15054.42,   -3.28,    11761.58
  222,   3.473,    35152.,    23099.12,   -6.72,    12052.88
  223,   3.493,    54464.,    42585.43,   -9.03,    11878.57
  224,   3.513,    90816.,    80336.45,  -10.55,    10479.55
  225,   3.533,   155072.,   145223.25,  -10.60,     9848.75
  226,   3.553,   255488.,   246512.48,   -8.65,     8975.52
  227,   3.574,   404352.,   390508.41,   -5.30,    13843.59
  228,   3.594,   595456.,   576032.25,   -0.59,    19423.75
  229,   3.614,   822784.,   790403.50,    4.87,    32380.50
  230,   3.634,  1057792.,  1008306.25,    9.97,    49485.75
  231,   3.654,  1255936.,  1195441.00,   14.18,    60495.00
  232,   3.674,  1385472.,  1316908.00,   16.42,    68564.00
  233,   3.694,  1417728.,  1347730.63,   16.97,    69997.38
  234,   3.714,  1341952.,  1281273.00,   15.37,    60679.00
  235,   3.734,  1178112.,  1131536.13,   11.41,    46575.88
  236,   3.754,   958976.,   928487.50,    6.58,    30488.50
  237,   3.774,   728064.,   708398.50,    1.26,    19665.50
  238,   3.794,   515200.,   503701.06,   -3.55,    11498.94
  239,   3.814,   341120.,   336155.84,   -6.89,     4964.16
  240,   3.835,   217344.,   215035.27,   -8.90,     2308.73
  241,   3.855,   140224.,   139475.25,   -9.26,      748.75
  242,   3.875,   101984.,   102669.05,   -8.80,     -685.05
  243,   3.895,    93728.,    95633.92,   -8.04,    -1905.92
  244,   3.915,   103968.,   109369.69,   -7.48,    -5401.69
  245,   3.935,   128032.,   135468.47,   -8.32,    -7436.47
  246,   3.955,   155200.,   165987.45,  -11.01,   -10787.45
  247,   3.975,   181952.,   193465.72,  -14.81,   -11513.72
  248,   3.995,   198720.,   211526.16,  -19.29,   -12806.16
  249,   4.015,   202816.,   215911.67,  -21.08,   -13095.67
  250,   4.035,   192320.,   205400.11,  -20.26,   -13080.11
  251,   4.055,   171200.,   181980.17,  -16.03,   -10780.17
  252,   4.075,   140928.,   150106.20,  -10.60,    -9178.20
  253,   4.095,   108032.,   115246.75,   -5.11,    -7214.75
  254,   4.116,    77504.,    82346.99,    0.76,    -4842.99
  255,   4.136,    52064.,    54753.51,    5.94,    -2689.51
  256,   4.156,    32704.,    33876.02,   10.01,    -1172.02
  257,   4.176,    18840.,    19501.49,   13.43,     -661.49
  258,   4.196,    10824.,    10445.31,   16.01,      378.69
  259,   4.216,     5664.,     5205.30,   17.10,      458.70
  260,   4.236,     2971.,     2414.07,   17.52,      556.93
  261,   4.256,     1721.,     1043.28,   16.42,      677.72
  262,   4.276,      953.,      423.33,   14.97,      529.67
  263,   4.296,      609.,      167.94,   11.63,      441.06
  264,   4.316,      541.,       77.94,    8.53,      463.06
  265,   4.336,      455.,       61.83,    5.74,      393.17
  266,   4.356,      491.,       82.73,    0.27,      408.27
  267,   4.376,      513.,      128.24,   -1.34,      384.76
  268,   4.397,      545.,      194.05,   -2.22,      350.95
  269,   4.417,      642.,      276.47,   -2.43,      365.53
  270,   4.437,      689.,      368.05,   -0.67,      320.95
  271,   4.457,      762.,      457.14,   -0.56,      304.86
  272,   4.477,      817.,      529.70,   -0.50,      287.30
  273,   4.497,      855.,      572.61,   -0.37,      282.39
  274,   4.517,      826.,      577.66,   -1.25,      248.34
  275,   4.537,      765.,      544.13,   -1.64,      220.87
  276,   4.557,      723.,      479.03,   -2.18,      243.97
  277,   4.577,      604.,      394.79,   -2.36,      209.21
  278,   4.597,      501.,      305.39,   -2.75,      195.61
  279,   4.617,      385.,      222.73,   -3.25,      162.27
  280,   4.637,      322.,      154.24,   -3.03,      167.76
  281,   4.657,      284.,      102.50,   -3.73,      181.50
  282,   4.678,      225.,       66.47,   -4.05,      158.53
  283,   4.698,      188.,       43.18,   -4.16,      144.82
  284,   4.718,      205.,       29.21,   -3.16,      175.79
  285,   4.738,      187.,       21.93,   -1.56,      165.07
  286,   4.758,      182.,       19.75,   -0.26,      162.25
  287,   4.778,      186.,       21.86,    1.04,      164.14
  288,   4.798,      219.,       28.06,    2.73,      190.94
  289,   4.818,      225.,       38.16,    2.50,      186.84
  290,   4.838,      257.,       51.53,    3.24,      205.47
  291,   4.858,      248.,       67.03,    3.66,      180.97
  292,   4.878,      270.,       82.67,    2.88,      187.33
  293,   4.898,      254.,       95.93,    2.87,      158.07
  294,   4.918,      269.,      104.48,    2.07,      164.52
  295,   4.938,      262.,      106.67,   -0.18,      155.33
  296,   4.959,      241.,      101.97,   -0.93,      139.03
  297,   4.979,      242.,       91.25,   -2.10,      150.75
  298,   4.999,      214.,       76.47,   -2.28,      137.53
  299,   5.019,      182.,       60.05,   -1.86,      121.95
  300,   5.039,      189.,       44.24,   -1.14,      144.76
  301,   5.059,      133.,       30.62,   -1.29,      102.38
  302,   5.079,      140.,       20.09,   -1.28,      119.91
  303,   5.099,      149.,       12.63,   -0.29,      136.37
  304,   5.119,      147.,        7.75,    0.44,      139.25
  305,   5.139,      102.,        4.85,    0.20,       97.15
  306,   5.159,      127.,        3.36,    1.43,      123.64
  307,   5.179,      129.,        2.64,    0.86,      126.36
  308,   5.199,      112.,        2.77,   -0.27,      109.23
  309,   5.219,      118.,        3.27,   -1.43,      114.73
  310,   5.240,      109.,        4.21,   -0.24,      104.79
  311,   5.260,       97.,        5.61,   -0.79,       91.39
  312,   5.280,      103.,        7.50,   -0.90,       95.50
  313,   5.300,      104.,        9.95,   -1.04,       94.05
  314,   5.320,      112.,       12.71,   -1.41,       99.29
  315,   5.340,      126.,       15.67,   -1.80,      110.33
  316,   5.360,      129.,       18.49,   -0.72,      110.51
  317,   5.380,      109.,       20.96,   -0.08,       88.04
  318,   5.400,      109.,       22.44,    0.81,       86.56
  319,   5.420,      110.,       22.93,    1.36,       87.07
  320,   5.440,      125.,       22.51,    0.46,      102.49
  321,   5.460,      113.,       21.52,   -0.58,       91.48
  322,   5.480,      119.,       20.51,   -0.98,       98.49
  323,   5.500,      118.,       20.09,   -1.34,       97.91
  324,   5.521,      100.,       20.75,   -1.34,       79.25
  325,   5.541,      116.,       22.72,   -1.42,       93.28
  326,   5.561,      112.,       25.88,   -0.20,       86.12
  327,   5.581,      104.,       29.67,    0.29,       74.33
  328,   5.601,      118.,       33.41,    0.12,       84.59
  329,   5.621,      120.,       36.12,    1.03,       83.88
  330,   5.641,      144.,       37.23,    0.92,      106.77
  331,   5.661,      148.,       36.42,    0.86,      111.58
  332,   5.681,      121.,       34.05,    1.91,       86.95
  333,   5.701,      125.,       30.75,    1.76,       94.25
  334,   5.721,      102.,       27.37,    1.36,       74.63
  335,   5.741,      106.,       24.88,    0.20,       81.12
  336,   5.761,      115.,       23.99,   -0.83,       91.01
  337,   5.781,       97.,       25.12,   -1.22,       71.88
  338,   5.802,      101.,       28.23,   -1.69,       72.77
  339,   5.822,      102.,       32.86,   -1.56,       69.14
  340,   5.842,      122.,       38.22,   -0.88,       83.78
  341,   5.862,      124.,       43.32,   -0.52,       80.68
  342,   5.882,      126.,       47.21,    0.29,       78.79
  343,   5.902,      125.,       49.19,    1.18,       75.81
  344,   5.922,      121.,       48.96,    1.83,       72.04
  345,   5.942,      126.,       46.64,    0.73,       79.36
  346,   5.962,      124.,       42.79,    0.72,       81.21
  347,   5.982,      114.,       38.13,    0.94,       75.87
  348,   6.002,      113.,       33.44,    0.36,       79.56
  349,   6.022,       82.,       29.36,    0.07,       52.64
  350,   6.042,       95.,       26.44,    0.40,       68.56
  351,   6.063,       92.,       25.01,   -0.34,       66.99
  352,   6.083,       83.,       25.59,   -1.48,       57.41
  353,   6.103,       94.,       29.15,   -1.83,       64.85
  354,   6.123,      107.,       37.82,   -1.93,       69.18
  355,   6.143,      122.,       55.88,   -1.74,       66.12
  356,   6.163,      127.,       91.09,   -0.99,       35.91
  357,   6.183,      218.,      156.21,   -1.16,       61.79
  358,   6.203,      338.,      269.93,   -0.77,       68.07
  359,   6.223,      500.,      456.29,    0.01,       43.71
  360,   6.243,      834.,      741.77,    0.34,       92.23
  361,   6.263,     1227.,     1147.88,    1.23,       79.12
  362,   6.283,     1766.,     1681.83,    2.71,       84.17
  363,   6.303,     2468.,     2326.14,    2.69,      141.86
  364,   6.323,     3067.,     3031.21,    3.28,       35.79
  365,   6.344,     3784.,     3718.04,    2.16,       65.96
  366,   6.364,     4456.,     4289.63,    1.14,      166.37
  367,   6.384,     4728.,     4653.34,    0.03,       74.66
  368,   6.404,     4822.,     4745.03,   -0.43,       76.97
  369,   6.424,     4486.,     4547.37,   -0.98,      -61.37
  370,   6.444,     4032.,     4095.29,   -1.41,      -63.29
  371,   6.464,     3400.,     3465.72,   -3.01,      -65.72
  372,   6.484,     2815.,     2755.94,   -3.46,       59.06
  373,   6.504,     2038.,     2059.42,   -3.84,      -21.42
  374,   6.524,     1446.,     1446.29,   -2.97,       -0.29
  375,   6.544,      936.,      954.73,   -1.89,      -18.73
  376,   6.564,      612.,      592.69,    0.01,       19.31
  377,   6.584,      355.,      346.37,    0.04,        8.63
  378,   6.604,      249.,      190.98,    1.30,       58.02
  379,   6.625,      154.,       99.85,    1.49,       54.15
  380,   6.645,      119.,       50.15,    2.11,       68.85
  381,   6.665,       80.,       24.97,    2.09,       55.03
  382,   6.685,       68.,       13.23,    3.71,       54.77
  383,   6.705,       69.,        8.50,    3.20,       60.50
  384,   6.725,       64.,        7.29,    2.95,       56.71
  385,   6.745,       70.,        8.06,    1.20,       61.94
  386,   6.765,       73.,       10.52,    1.02,       62.48
  387,   6.785,       58.,       15.18,    0.55,       42.82
  388,   6.805,       87.,       23.21,   -0.40,       63.79
  389,   6.825,       85.,       36.37,    0.17,       48.63
  390,   6.845,      120.,       57.37,   -0.90,       62.63
  391,   6.865,      156.,       89.40,   -1.30,       66.60
  392,   6.885,      168.,      135.99,   -0.96,       32.01
  393,   6.906,      266.,      200.16,   -1.21,       65.84
  394,   6.926,      340.,      283.06,   -1.16,       56.94
