 File:672014.spo  Solution Type:Thick  fitting  891 channels ( 110-1000)
 Channel#, E(keV),   Data,        Fit, Residual,    Data-Fit
  110,   0.611,      110.,        3.75,    1.29,      106.25
  111,   0.621,      103.,        3.33,    1.51,       99.67
  112,   0.631,      111.,        2.90,    0.56,      108.10
  113,   0.641,      103.,        2.47,    0.22,      100.53
  114,   0.651,      130.,        2.07,    0.20,      127.93
  115,   0.661,      104.,        1.70,   -0.64,      102.30
  116,   0.671,      114.,        1.38,   -1.40,      112.62
  117,   0.681,      118.,        1.12,   -1.68,      116.88
  118,   0.691,      133.,        0.90,   -2.51,      132.10
  119,   0.701,       95.,        0.81,   -3.45,       94.19
  120,   0.711,      127.,        0.77,   -4.28,      126.23
  121,   0.721,      132.,        0.74,   -5.10,      131.26
  122,   0.732,      128.,        0.74,   -5.39,      127.26
  123,   0.742,      127.,        0.86,   -4.98,      126.14
  124,   0.752,      151.,        0.98,   -4.62,      150.02
  125,   0.762,      155.,        1.26,   -4.10,      153.74
  126,   0.772,      144.,        1.63,   -4.12,      142.37
  127,   0.782,      169.,        2.07,   -1.61,      166.93
  128,   0.792,      158.,        2.69,   -1.39,      155.31
  129,   0.802,      195.,        3.46,   -0.80,      191.54
  130,   0.812,      187.,        4.48,   -1.37,      182.52
  131,   0.822,      204.,        5.87,   -1.28,      198.13
  132,   0.832,      219.,        7.78,   -0.87,      211.22
  133,   0.842,      225.,       10.45,   -0.40,      214.55
  134,   0.852,      259.,       14.21,   -1.13,      244.79
  135,   0.862,      261.,       19.50,   -0.65,      241.50
  136,   0.872,      257.,       26.86,   -0.12,      230.14
  137,   0.882,      257.,       36.94,    0.20,      220.06
  138,   0.892,      288.,       50.50,    0.76,      237.50
  139,   0.902,      329.,       68.35,    0.82,      260.65
  140,   0.912,      359.,       91.24,    1.03,      267.76
  141,   0.922,      345.,      119.81,    0.98,      225.19
  142,   0.932,      465.,      154.45,    1.26,      310.55
  143,   0.942,      473.,      195.18,    1.13,      277.82
  144,   0.953,      570.,      241.53,    1.74,      328.47
  145,   0.963,      617.,      292.46,    2.60,      324.54
  146,   0.973,      646.,      346.32,    2.94,      299.68
  147,   0.983,      715.,      400.96,    2.55,      314.04
  148,   0.993,      777.,      453.78,    2.46,      323.22
  149,   1.003,      864.,      501.79,    3.11,      362.21
  150,   1.013,      860.,      542.20,    1.99,      317.80
  151,   1.023,      932.,      572.47,    1.76,      359.53
  152,   1.033,      931.,      590.65,    0.05,      340.35
  153,   1.043,      933.,      595.63,   -1.03,      337.37
  154,   1.053,      913.,      587.23,   -0.51,      325.77
  155,   1.063,      922.,      566.35,   -0.15,      355.65
  156,   1.073,      892.,      534.92,    0.09,      357.08
  157,   1.083,      811.,      495.46,    0.15,      315.54
  158,   1.093,      815.,      451.11,    0.95,      363.89
  159,   1.103,      710.,      405.26,    1.40,      304.74
  160,   1.113,      705.,      361.21,    2.27,      343.79
  161,   1.123,      705.,      321.93,    2.03,      383.07
  162,   1.133,      682.,      289.80,    2.48,      392.20
  163,   1.143,      678.,      266.49,    2.24,      411.51
  164,   1.153,      648.,      252.84,    2.18,      395.16
  165,   1.163,      673.,      248.81,    2.69,      424.19
  166,   1.174,      657.,      253.80,    2.76,      403.20
  167,   1.184,      689.,      266.19,    3.46,      422.81
  168,   1.194,      635.,      284.07,    4.07,      350.93
  169,   1.204,      675.,      305.07,    3.66,      369.93
  170,   1.214,      688.,      326.65,    3.37,      361.35
  171,   1.224,      712.,      346.41,    3.08,      365.59
  172,   1.234,      733.,      362.18,    2.89,      370.82
  173,   1.244,      720.,      372.23,    1.47,      347.77
  174,   1.254,      734.,      375.53,    1.02,      358.47
  175,   1.264,      731.,      371.69,   -1.16,      359.31
  176,   1.274,      695.,      361.12,   -1.83,      333.88
  177,   1.284,      715.,      344.96,   -1.64,      370.04
  178,   1.294,      712.,      325.01,   -1.00,      386.99
  179,   1.304,      657.,      303.60,   -0.60,      353.40
  180,   1.314,      606.,      283.41,   -0.08,      322.59
  181,   1.324,      616.,      267.29,    0.25,      348.71
  182,   1.334,      545.,      258.13,    0.73,      286.87
  183,   1.344,      552.,      258.57,    1.71,      293.43
  184,   1.354,      627.,      270.90,    2.26,      356.10
  185,   1.364,      648.,      296.78,    2.22,      351.22
  186,   1.374,      657.,      337.19,    1.75,      319.81
  187,   1.384,      720.,      392.23,    1.29,      327.77
  188,   1.395,      780.,      461.01,    0.80,      318.99
  189,   1.405,      860.,      541.55,    1.05,      318.45
  190,   1.415,      984.,      630.72,    1.36,      353.28
  191,   1.425,     1052.,      724.49,    1.45,      327.51
  192,   1.435,     1146.,      818.04,    0.88,      327.96
  193,   1.445,     1180.,      906.02,    0.96,      273.98
  194,   1.455,     1240.,      983.12,    0.72,      256.88
  195,   1.465,     1268.,     1044.42,    0.46,      223.58
  196,   1.475,     1398.,     1085.92,    0.13,      312.08
  197,   1.485,     1346.,     1104.91,    0.06,      241.09
  198,   1.495,     1347.,     1100.34,   -0.92,      246.66
  199,   1.505,     1316.,     1072.88,   -1.27,      243.12
  200,   1.515,     1309.,     1024.93,   -2.07,      284.07
  201,   1.525,     1166.,      960.56,   -2.05,      205.44
  202,   1.535,     1127.,      885.07,   -2.43,      241.93
  203,   1.545,     1055.,      804.55,   -1.87,      250.45
  204,   1.555,      953.,      725.50,   -2.48,      227.50
  205,   1.565,      863.,      654.50,   -3.26,      208.50
  206,   1.575,      844.,      598.01,   -4.01,      245.99
  207,   1.585,      763.,      561.69,   -3.87,      201.31
  208,   1.595,      767.,      550.43,   -3.77,      216.57
  209,   1.605,      761.,      568.03,   -3.40,      192.97
  210,   1.616,      839.,      617.13,   -3.00,      221.87
  211,   1.626,      938.,      698.86,   -3.62,      239.14
  212,   1.636,      986.,      812.72,   -2.88,      173.28
  213,   1.646,     1122.,      956.45,   -2.25,      165.55
  214,   1.656,     1317.,     1125.37,   -1.53,      191.63
  215,   1.666,     1559.,     1313.15,   -1.96,      245.85
  216,   1.676,     1747.,     1511.46,   -1.87,      235.54
  217,   1.686,     1977.,     1710.28,   -1.74,      266.72
  218,   1.696,     2123.,     1898.86,   -1.82,      224.14
  219,   1.706,     2363.,     2066.22,   -1.85,      296.78
  220,   1.716,     2549.,     2202.04,   -1.43,      346.96
  221,   1.726,     2653.,     2297.90,   -0.16,      355.10
  222,   1.736,     2553.,     2347.60,    0.36,      205.40
  223,   1.746,     2588.,     2348.09,    0.76,      239.91
  224,   1.756,     2569.,     2299.83,    1.10,      269.17
  225,   1.766,     2437.,     2206.38,    1.37,      230.62
  226,   1.776,     2390.,     2074.50,    1.41,      315.50
  227,   1.786,     2208.,     1913.00,    2.12,      295.00
  228,   1.796,     2123.,     1732.03,    2.04,      390.97
  229,   1.806,     1851.,     1542.10,    1.84,      308.90
  230,   1.816,     1708.,     1353.20,    2.87,      354.80
  231,   1.826,     1488.,     1174.17,    3.85,      313.83
  232,   1.837,     1346.,     1011.90,    4.10,      334.10
  233,   1.847,     1151.,      871.26,    4.52,      279.74
  234,   1.857,     1170.,      754.97,    4.66,      415.03
  235,   1.867,     1045.,      663.72,    5.24,      381.28
  236,   1.877,      974.,      596.51,    4.71,      377.49
  237,   1.887,      915.,      550.99,    4.93,      364.01
  238,   1.897,      856.,      523.95,    4.33,      332.05
  239,   1.907,      810.,      511.34,    3.70,      298.66
  240,   1.917,      777.,      509.13,    3.58,      267.87
  241,   1.927,      842.,      513.41,    3.78,      328.59
  242,   1.937,      838.,      520.50,    2.70,      317.50
  243,   1.947,      793.,      527.10,    1.64,      265.90
  244,   1.957,      791.,      530.68,    1.27,      260.32
  245,   1.967,      812.,      529.32,    0.67,      282.68
  246,   1.977,      741.,      521.81,    0.15,      219.19
  247,   1.987,      758.,      507.60,   -0.12,      250.40
  248,   1.997,      749.,      486.66,   -0.71,      262.34
  249,   2.007,      697.,      459.73,   -1.85,      237.27
  250,   2.017,      666.,      427.67,   -2.08,      238.33
  251,   2.027,      618.,      391.83,   -1.12,      226.17
  252,   2.037,      588.,      353.42,   -0.93,      234.58
  253,   2.048,      517.,      313.96,   -1.35,      203.04
  254,   2.058,      466.,      274.94,   -0.47,      191.06
  255,   2.068,      378.,      237.41,   -0.88,      140.59
  256,   2.078,      382.,      202.55,   -1.29,      179.45
  257,   2.088,      332.,      171.15,   -1.36,      160.85
  258,   2.098,      339.,      143.74,   -1.57,      195.26
  259,   2.108,      269.,      120.74,   -2.39,      148.26
  260,   2.118,      247.,      102.33,   -3.19,      144.67
  261,   2.128,      260.,       88.70,   -2.82,      171.30
  262,   2.138,      212.,       79.72,   -3.40,      132.28
  263,   2.148,      233.,       75.42,   -2.55,      157.58
  264,   2.158,      209.,       75.76,   -2.47,      133.24
  265,   2.168,      197.,       80.65,   -2.00,      116.35
  266,   2.178,      187.,       89.98,   -2.95,       97.02
  267,   2.188,      221.,      103.49,   -3.35,      117.51
  268,   2.198,      252.,      120.90,   -2.69,      131.10
  269,   2.208,      259.,      141.76,   -3.36,      117.24
  270,   2.218,      270.,      165.39,   -2.29,      104.61
  271,   2.228,      291.,      191.06,   -3.75,       99.94
  272,   2.238,      337.,      217.68,   -3.95,      119.32
  273,   2.248,      331.,      244.12,   -3.47,       86.88
  274,   2.258,      360.,      268.91,   -2.05,       91.09
  275,   2.269,      397.,      290.84,   -1.10,      106.16
  276,   2.279,      395.,      308.69,   -1.67,       86.31
  277,   2.289,      448.,      321.26,   -1.39,      126.74
  278,   2.299,      405.,      327.90,   -1.67,       77.10
  279,   2.309,      414.,      328.14,   -0.56,       85.86
  280,   2.319,      420.,      321.96,   -0.50,       98.04
  281,   2.329,      422.,      309.80,   -0.62,      112.20
  282,   2.339,      440.,      292.37,   -0.78,      147.63
  283,   2.349,      354.,      270.69,   -0.33,       83.31
  284,   2.359,      340.,      246.22,    0.48,       93.78
  285,   2.369,      288.,      220.12,   -0.13,       67.88
  286,   2.379,      317.,      193.65,    0.15,      123.35
  287,   2.389,      268.,      168.10,    0.64,       99.90
  288,   2.399,      217.,      144.40,    0.79,       72.60
  289,   2.409,      205.,      123.32,    0.34,       81.68
  290,   2.419,      220.,      105.44,   -0.79,      114.56
  291,   2.429,      194.,       91.15,   -0.48,      102.85
  292,   2.439,      175.,       80.46,   -0.53,       94.54
  293,   2.449,      158.,       73.86,    0.80,       84.14
  294,   2.459,      166.,       71.17,   -0.08,       94.83
  295,   2.469,      159.,       72.43,   -0.54,       86.57
  296,   2.479,      176.,       77.68,   -0.26,       98.32
  297,   2.490,      181.,       86.95,    0.17,       94.05
  298,   2.500,      190.,      100.14,    0.57,       89.86
  299,   2.510,      203.,      117.26,    0.60,       85.74
  300,   2.520,      248.,      137.97,    0.36,      110.03
  301,   2.530,      254.,      161.85,    0.61,       92.15
  302,   2.540,      259.,      188.34,    0.61,       70.66
  303,   2.550,      298.,      216.46,    0.84,       81.54
  304,   2.560,      347.,      245.07,    0.52,      101.93
  305,   2.570,      363.,      272.92,    0.30,       90.08
  306,   2.580,      388.,      298.49,    0.35,       89.51
  307,   2.590,      395.,      320.58,    0.25,       74.42
  308,   2.600,      423.,      337.73,    0.34,       85.27
  309,   2.610,      446.,      348.88,   -0.30,       97.12
  310,   2.620,      433.,      353.40,   -1.06,       79.60
  311,   2.630,      436.,      350.97,   -0.61,       85.03
  312,   2.640,      404.,      341.71,   -0.55,       62.29
  313,   2.650,      417.,      326.22,   -0.86,       90.78
  314,   2.660,      394.,      305.45,   -1.23,       88.55
  315,   2.670,      348.,      280.63,   -1.50,       67.37
  316,   2.680,      325.,      253.09,   -1.93,       71.91
  317,   2.690,      300.,      224.32,   -1.75,       75.68
  318,   2.700,      255.,      195.75,   -1.97,       59.25
  319,   2.711,      251.,      168.45,   -2.43,       82.55
  320,   2.721,      227.,      143.33,   -2.70,       83.67
  321,   2.731,      199.,      121.02,   -2.18,       77.98
  322,   2.741,      169.,      101.88,   -2.54,       67.12
  323,   2.751,      166.,       85.96,   -2.68,       80.04
  324,   2.761,      141.,       73.11,   -2.26,       67.89
  325,   2.771,      150.,       63.00,   -1.97,       87.00
  326,   2.781,      146.,       55.18,   -1.60,       90.82
  327,   2.791,      125.,       49.21,   -0.97,       75.79
  328,   2.801,      130.,       44.60,   -0.87,       85.40
  329,   2.811,      121.,       40.91,   -1.57,       80.09
  330,   2.821,      121.,       37.77,   -1.05,       83.23
  331,   2.831,      131.,       34.91,   -0.45,       96.09
  332,   2.841,      144.,       32.13,    0.28,      111.87
  333,   2.851,      125.,       29.33,    0.82,       95.67
  334,   2.861,      126.,       26.46,    0.88,       99.54
  335,   2.871,      127.,       23.54,    0.61,      103.46
  336,   2.881,      125.,       20.62,    1.31,      104.38
  337,   2.891,      105.,       17.75,    2.07,       87.25
  338,   2.901,      119.,       14.97,    1.98,      104.03
  339,   2.911,      125.,       12.39,    2.48,      112.61
  340,   2.921,      132.,       10.12,    1.65,      121.88
  341,   2.932,      112.,        8.10,    0.23,      103.90
  342,   2.942,      116.,        6.36,    0.29,      109.64
  343,   2.952,      118.,        4.90,    0.15,      113.10
  344,   2.962,      122.,        3.65,   -0.06,      118.35
  345,   2.972,      122.,        2.72,   -0.68,      119.28
  346,   2.982,      103.,        1.99,   -0.76,      101.01
  347,   2.992,      134.,        1.46,   -0.92,      132.54
  348,   3.002,       98.,        1.07,   -0.93,       96.93
  349,   3.012,      107.,        0.80,   -1.12,      106.20
  350,   3.022,      117.,        0.64,   -1.22,      116.36
  351,   3.032,      122.,        0.57,   -0.95,      121.43
  352,   3.042,      121.,        0.58,   -1.34,      120.42
  353,   3.052,      104.,        0.80,   -1.76,      103.20
  354,   3.062,      126.,        1.06,   -1.67,      124.94
  355,   3.072,      134.,        1.54,   -1.45,      132.46
  356,   3.082,      136.,        2.22,   -2.28,      133.78
  357,   3.092,      148.,        3.15,   -1.26,      144.85
  358,   3.102,      128.,        4.39,   -1.40,      123.61
  359,   3.112,      148.,        6.02,   -1.80,      141.98
  360,   3.122,      130.,        8.14,   -2.31,      121.86
  361,   3.132,      132.,       10.84,   -2.96,      121.16
  362,   3.142,      173.,       14.19,   -2.45,      158.81
  363,   3.153,      167.,       18.28,   -2.12,      148.72
  364,   3.163,      161.,       23.17,   -1.61,      137.83
  365,   3.173,      198.,       28.91,   -1.48,      169.09
  366,   3.183,      176.,       35.51,   -1.80,      140.49
  367,   3.193,      189.,       42.91,   -1.28,      146.09
  368,   3.203,      197.,       51.04,   -0.83,      145.96
  369,   3.213,      198.,       59.75,    0.12,      138.25
  370,   3.223,      228.,       68.82,    0.36,      159.18
  371,   3.233,      262.,       77.98,   -0.31,      184.02
  372,   3.243,      268.,       86.93,   -0.57,      181.07
  373,   3.253,      289.,       95.33,   -0.50,      193.67
  374,   3.263,      284.,      102.80,   -1.27,      181.20
  375,   3.273,      307.,      109.02,   -1.12,      197.98
  376,   3.283,      314.,      113.66,   -1.49,      200.34
  377,   3.293,      321.,      116.48,   -1.98,      204.52
  378,   3.303,      310.,      117.32,   -1.97,      192.68
  379,   3.313,      310.,      116.16,   -1.30,      193.84
  380,   3.323,      302.,      113.03,   -1.58,      188.97
  381,   3.333,      313.,      108.09,   -1.54,      204.91
  382,   3.343,      306.,      101.65,   -0.88,      204.35
  383,   3.353,      314.,       94.07,   -0.56,      219.93
  384,   3.363,      285.,       85.94,    0.06,      199.06
  385,   3.374,      281.,       77.85,    0.47,      203.15
  386,   3.384,      292.,       70.49,    1.08,      221.51
  387,   3.394,      314.,       64.88,    1.67,      249.12
  388,   3.404,      296.,       62.34,    1.78,      233.66
  389,   3.414,      323.,       64.64,    3.99,      258.36
  390,   3.424,      356.,       74.32,    4.68,      281.68
  391,   3.434,      361.,       94.96,    5.31,      266.04
  392,   3.444,      411.,      131.62,    4.11,      279.38
  393,   3.454,      473.,      191.36,    3.35,      281.64
  394,   3.464,      570.,      283.77,    2.70,      286.23
  395,   3.474,      695.,      421.59,    1.77,      273.41
  396,   3.484,      899.,      621.20,    1.26,      277.80
  397,   3.494,     1195.,      903.02,   -0.56,      291.98
  398,   3.504,     1567.,     1291.54,   -1.44,      275.46
  399,   3.514,     2089.,     1815.22,   -2.65,      273.78
  400,   3.524,     2733.,     2505.17,   -2.25,      227.83
  401,   3.534,     3639.,     3393.82,   -1.89,      245.18
  402,   3.544,     4706.,     4512.46,   -2.25,      193.54
  403,   3.554,     6082.,     5888.02,   -2.11,      193.98
  404,   3.564,     7830.,     7539.35,   -1.56,      290.65
  405,   3.574,     9336.,     9473.09,   -1.44,     -137.09
  406,   3.584,    11744.,    11679.82,   -1.24,       64.18
  407,   3.595,    14152.,    14130.65,   -0.48,       21.35
  408,   3.605,    17192.,    16774.93,    0.32,      417.07
  409,   3.615,    19952.,    19540.21,    1.06,      411.79
  410,   3.625,    22648.,    22333.90,    2.53,      314.10
  411,   3.635,    25464.,    25047.56,    4.07,      416.44
  412,   3.645,    28000.,    27563.30,    4.38,      436.70
  413,   3.655,    30024.,    29761.86,    4.57,      262.14
  414,   3.665,    31808.,    31532.00,    5.68,      276.00
  415,   3.675,    33152.,    32779.57,    5.91,      372.43
  416,   3.685,    33808.,    33435.83,    6.03,      372.17
  417,   3.695,    33776.,    33464.37,    4.98,      311.63
  418,   3.705,    33392.,    32863.71,    3.58,      528.29
  419,   3.715,    32112.,    31667.23,    2.11,      444.77
  420,   3.725,    30192.,    29941.27,    1.52,      250.73
  421,   3.735,    27928.,    27778.25,    0.47,      149.75
  422,   3.745,    25408.,    25288.76,   -0.41,      119.24
  423,   3.755,    22544.,    22592.31,   -1.34,      -48.31
  424,   3.765,    19704.,    19808.19,   -2.24,     -104.19
  425,   3.775,    16960.,    17047.26,   -2.44,      -87.26
  426,   3.785,    14164.,    14405.10,   -2.51,     -241.10
  427,   3.795,    11596.,    11958.07,   -3.21,     -362.07
  428,   3.806,     9900.,     9760.99,   -3.56,      139.01
  429,   3.816,     7698.,     7847.48,   -3.65,     -149.48
  430,   3.826,     6186.,     6231.92,   -3.54,      -45.92
  431,   3.836,     4792.,     4912.35,   -3.35,     -120.35
  432,   3.846,     3816.,     3874.58,   -2.96,      -58.58
  433,   3.856,     3122.,     3095.97,   -2.33,       26.03
  434,   3.866,     2566.,     2548.95,   -1.68,       17.05
